0
0
0
0
0
0
0
0
0
0
0
0
0
0
0
0
0
0
0
0
0
0
0
0
0
0
0
0
0
0
0
0
0
0
0
0
0
0
0
0
0
0
0
0
0
0
0
0
0
0
0
0
0
0
0
0
0
0
0
0
0
0
0
0
0
0
0
0
0
0
0
0
0
0
0
0
0
0
0
0
0
0
0
0
0
0
0
0
0
0
0
0
0
0
0
0
0
0
0
0
0
0
0
0
0
0
0
0
0
0
0
0.6927457
0.6927457
0.2200829
-0.8883648
3.396651
1.244016
1.244016
-0.161013
-1.46502
-1.46502
0.6996579
0.4119585
-2.287147
2.267614
2.267614
2.167447
2.167447
0.8337014
0.588919
0.588919
0.1340422
0.1340422
-0.1843561
0.4252757
0.4154988
3.086591
3.086591
-0.9138147
0.3395847
0.3395847
0.5720761
0.8232235
-0.2670597
-0.2670597
-0.09020403
-1.775307
-1.775307
-0.2762711
0.2287153
-0.3518768
0.132245
0.132245
-0.5027819
-0.5027819
0.8029342
-0.1078921
-0.1078921
-0.3079908
-0.3079908
0.387868
-0.954932
-1.644914
0.6544016
0.6544016
-0.5431653
0.2914873
0.2914873
-0.871562
-0.9328948
-0.244396
-0.244396
0.7613685
-3.51967
-3.51967
-0.2113288
-0.2269428
-0.02843884
0.1441536
0.1441536
0.2823669
0.2823669
-0.007167795
4.184985
4.184985
-0.09964452
-0.09964452
-0.4489336
0.1474716
-0.4698135
-0.2086618
-0.2086618
-0.1700307
0.6082327
0.6082327
0.5805356
-1.728595
0.8574979
1.208712
1.208712
-0.9118792
-0.9118792
-0.04634543
-0.5709407
-0.5200598
-0.3752925
-0.3752925
0.1832839
0.1832839
-0.4945035
0.3441305
0.3441305
-1.089978
-1.089978
-0.8368235
0.3060394
0.3060394
0.4912748
0.4912748
-1.901197
0.1465215
0.1465215
1.291318
-1.746478
1.457971
5.298046
5.298046
-0.7226751
-0.7226751
-0.09534462
-0.6866074
-0.6866074
0.5262832
0.5262832
1.748279
1.748279
0.5396319
0.07592838
0.07592838
-1.267447
-1.267447
0.09933364
0.4234222
0.7455161
-0.09415322
-0.09415322
2.001038
-0.01826737
-0.7445996
-0.7445996
-0.7445996
-0.0319312
0.6389725
0.6389725
0.3825937
0.3825937
-0.1572544
0.1237842
-0.2373996
-0.9569451
-0.9569451
0.3304964
0.7248857
2.111948
0.1825544
-0.5462582
1.29688
1.29688
0.2897757
0.281249
0.281249
-0.1402715
-0.1402715
-0.6105844
0.7212074
0.7212074
0.09515975
0.09515975
0.9177521
0.008984446
0.008984446
-0.1200382
-0.1200382
0.1256197
0.5086115
0.5086115
-0.4085025
-0.4085025
0.5249392
0.2599043
0.2599043
-0.1311876
-0.1311876
0.7785691
0.7785691
-1.391703
0.8811931
0.8811931
-0.2626236
0.8242472
-0.6594472
-0.2977858
-0.2977858
0.4579146
0.4579146
-0.198595
-2.197161
-2.197161
0.3229314
0.3229314
-0.1568268
-0.8694469
-0.9414966
0.7795836
0.7795836
-0.008898248
-1.025128
-1.025128
2.083689
0.3171984
-0.295947
-0.5647277
-0.5647277
-0.3044906
-0.3044906
-0.8769362
0.5463645
0.1491373
-0.7629954
-0.7629954
-0.2140335
-0.2140335
-0.07247864
-1.086562
-1.086562
-0.7121499
-0.7121499
0.916521
0.1867135
0.9593922
-0.6649368
-0.6649368
-0.552687
-0.7364094
-0.7364094
-0.5996059
0.8157999
-0.3244819
0.4900265
0.4900265
-0.1717063
-0.1717063
0.4283114
-0.1504014
-0.1504014
-0.4820812
-0.4820812
0.4572532
0.4572532
1.846344
-0.6264029
-0.6264029
0.03194602
0.03194602
-1.04446
-0.0529439
0.471324
1.208022
1.208022
-0.9132362
0.7576975
0.7576975
3.506343
-0.1577962
-0.07275755
-0.3516326
-0.3516326
-1.29378
-1.29378
0.4102212
-0.2357596
-0.2357596
0.3093668
0.3093668
1.604079
1.604079
-0.5676152
-0.9416664
-0.9416664
0.1507863
0.1507863
0.8829725
-0.1197116
-0.6483041
3.047889
3.047889
-0.6115792
1.408852
1.408852
-0.7434169
0.6474009
2.535453
5.117317
5.117317
-0.6357883
-0.6357883
-1.112872
1.273719
1.273719
0.8491977
0.8491977
-0.6292223
-0.5922374
-1.20358
0.3180091
0.3180091
0.5087183
0.5087183
-0.8314278
0.8350938
2.427296
0.9283117
0.9283117
0.3007978
0.3861482
0.3861482
-0.5688227
0.2735127
0.07599452
-0.8534471
-0.8534471
-0.06955267
-0.06955267
2.017602
-0.1057213
-0.1057213
0.5458511
0.5458511
-0.9722349
-0.6309263
-0.6309263
-0.229061
-0.229061
-0.7754263
-0.2250352
-0.2250352
1.319192
-0.3595021
0.3878179
0.3878179
0.1719816
0.3532856
0.3532856
-0.6570699
-0.8604323
1.223752
-1.166063
-1.166063
0.4740578
0.4740578
-0.6809914
0.10854
0.10854
-2.792255
-2.792255
-2.792255
1.053637
0.08101336
-0.7135307
-0.7135307
-0.7795012
1.126203
1.126203
-0.5432732
-0.4348341
-0.5975635
1.182871
1.182871
0.3211407
0.3211407
0.1964573
0.1964573
-0.2234848
0.3660563
0.3660563
-1.249121
-1.249121
-0.7253259
-0.2425824
-0.2425824
0.7811935
0.7811935
-0.2150779
-0.7099242
-0.7099242
-0.123496
0.582571
0.8665444
0.6482483
0.6482483
-0.1088151
-0.1088151
-1.741589
0.2366238
0.2366238
0.5720815
0.5720815
-0.8975827
0.6424602
-0.5300197
0.9206909
0.9206909
0.1886208
0.1886208
-0.2789615
0.4464921
0.8970289
-0.4255131
-0.4255131
-1.356336
0.7162727
0.7162727
-1.006632
0.7967086
-1.024976
-1.024976
-1.077988
0.5070966
0.5070966
-0.5788353
-2.017151
-2.017151
-0.9602787
-0.9602787
0.5672972
-1.295653
-1.295653
0.02437443
0.02437443
-0.6258886
-0.6258886
-1.201187
0.2615659
0.8854128
-0.3451361
-0.3451361
-0.1949058
3.420481
3.420481
-0.2834234
-0.6326903
0.6203503
0.9559448
0.9559448
0.04464867
0.04464867
5.080649
0.8216801
0.8216801
0.5301087
0.5301087
0.434954
0.820806
-0.02709695
-0.3867545
-0.3867545
6.931768
1.446187
1.446187
-2.553461
0.6475851
0.5673913
0.5673913
-0.9972824
7.977109
7.977109
-1.33685
-0.06081665
0.6110361
-0.3141071
-0.3141071
0.5006863
0.5006863
0.234916
-0.586396
-0.586396
-0.2596115
-0.2596115
1.078194
-0.09245322
-0.653821
-0.7323648
-0.7323648
-1.070283
1.034729
1.034729
6.543524
0.4952183
-0.2649148
-4.300212
-4.300212
-0.8381205
-0.8381205
-2.869193
2.282513
2.5052
0.5226967
0.5226967
-1.025842
-1.025842
-1.360124
0.7061226
0.7061226
1.467211
1.467211
0.8242521
-2.141733
4.484282
-0.8686379
-0.8686379
-1.66368
-10.41381
-10.41381
-8.747535
-5.552727
1.075445
-10.50918
-10.50918
2.552617
2.552617
-0.1719995
3.723478
-8.857887
-17.63374
-17.63374
-5.490192
-5.490192
1.968023
-23.36869
-23.36869
-10.54344
-10.54344
-20.67338
-13.70211
5.817447
-34.01302
-34.01302
14.92643
-21.98853
-21.98853
4.162264
14.54664
-14.92653
2.159194
2.159194
-2.738903
-2.738903
19.88679
-2.640445
-2.640445
16.98934
16.98934
16.66428
16.66428
-14.09023
-3.875205
-3.875205
-24.2382
-24.2382
5.336827
-9.753237
-9.753237
12.5178
12.5178
-5.189677
34.04472
34.04472
-16.92178
-16.64941
8.737601
5.321836
5.321836
-5.596873
-5.596873
22.0815
-9.772679
-13.20555
4.304833
4.304833
4.606584
4.606584
21.14895
-34.00461
-16.51836
11.58418
11.58418
-7.053617
14.30298
14.30298
32.07964
-48.39347
-19.66362
19.41654
19.41654
-16.77332
-16.77332
24.666
-13.91451
-13.91451
-20.66688
-20.66688
22.18667
-0.2755843
-1.109015
-88.06702
-88.06702
19.17168
36.37226
36.37226
6.46003
6.46003
24.00973
24.00973
3.438665
-8.834533
-1.227
-29.85273
4.120027
-18.5927
45.49131
45.49131
-6.733674
-6.733674
16.19992
-36.89475
-36.89475
-21.06972
-21.06972
-1.658196
0.6982899
-52.36928
-19.30671
-19.30671
-3.151096
1.465365
1.465365
-55.43906
-1.586897
-40.97442
-7.954129
-7.954129
2.4871
2.4871
6.105275
-12.50362
-12.50362
-4.545615
-4.545615
-13.13022
-13.13022
-27.31205
3.053712
3.053712
-0.4610678
-0.4610678
-8.540331
-4.340311
7.832963
4.094835
4.094835
-4.759686
-7.954292
-7.954292
-0.8412873
-3.6354
-31.7326
-38.62505
-38.62505
11.47931
11.47931
5.622536
5.933975
5.933975
26.76068
26.76068
8.139211
2.830187
-5.02952
-19.22313
-19.22313
-12.51225
-12.51225
4.235056
-10.26439
1.543641
-21.68074
-21.68074
-17.00292
13.50393
13.50393
-3.412513
6.926141
6.116704
-14.51179
-14.51179
-4.191281
-4.191281
-8.622838
-14.70791
-14.70791
6.465836
6.465836
-4.97837
13.43117
13.43117
8.679581
8.679581
-2.422029
-2.422029
-0.3868195
5.568031
-39.13866
20.61812
20.61812
-3.114519
-15.16271
-15.16271
5.127296
-7.236541
-3.033368
-3.550355
-3.550355
-22.05203
-22.05203
-3.656209
2.240063
2.240063
10.15026
10.15026
3.615056
10.73177
-11.37834
-6.31574
-6.31574
-5.017807
9.441175
9.441175
-6.231439
-7.786663
36.53418
36.53418
-4.91504
-4.911012
-4.911012
8.481531
1.114446
-0.7704602
2.478116
2.478116
3.128927
3.128927
28.02909
0.5014634
0.5014634
6.504647
6.504647
2.172931
-22.56333
10.76156
22.17116
22.17116
-10.03632
0.8301543
0.8301543
11.72282
1.505412
-1.903691
-2.97301
-2.97301
15.76088
15.76088
-5.433892
10.38603
3.269392
23.01482
23.01482
7.905136
7.905136
-2.223419
-2.997804
-2.997804
22.57998
22.57998
6.762588
-2.562744
-37.96897
14.92988
14.92988
-6.823713
19.92703
19.92703
0.3653533
0.3653533
-6.426016
15.39297
15.39297
3.138906
3.138906
35.97698
4.138514
4.138514
29.83674
29.83674
-1.946516
-1.946516
13.87865
7.302202
7.302202
2.054329
2.054329
2.963051
-9.217622
-9.217622
-10.86505
7.766477
1.825307
9.597676
9.597676
-8.774121
-15.10031
3.018757
10.5507
10.5507
13.01624
13.01624
11.07949
11.07949
1.379228
-13.89991
-13.89991
-23.63378
-23.63378
-16.84944
-4.674767
-33.65606
-5.017679
-5.017679
19.06546
-5.011181
9.347727
-5.332358
-15.04541
-5.208581
-5.687948
-5.687948
23.7053
23.7053
-6.172311
7.17333
7.17333
-7.704691
-7.704691
24.37588
-21.00995
12.01183
-6.951132
-6.951132
4.568536
-7.027826
-7.027826
-2.854983
-5.533906
-2.311187
-2.311187
13.73505
11.45431
11.45431
4.481266
-1.520728
17.15141
4.688354
4.688354
-8.957784
-8.957784
-12.69016
-7.263362
-7.263362
-31.46872
-31.46872
-8.228126
-6.795116
5.28357
-26.18596
-26.18596
-5.906449
-7.20341
-7.20341
0.006969432
5.473264
-15.94793
-15.94793
25.17732
-1.870605
-1.870605
-12.69381
-1.077432
-7.641256
57.77779
57.77779
0.2001768
0.2001768
-10.88004
1.159051
1.159051
41.60633
41.60633
7.979751
-7.104141
2.314736
-3.298093
-3.298093
3.089214
-2.236475
-2.236475
-0.586951
14.89803
0.1046238
-0.7823064
-0.7823064
-1.778165
-1.778165
7.207735
18.67185
-6.331459
28.64391
28.64391
-11.26482
-11.26482
-0.1969828
-1.719935
-1.719935
46.26456
46.26456
-5.938493
-5.949965
-5.633425
5.455139
5.455139
-9.115503
-2.224061
-2.224061
1.646517
-3.960775
-21.92916
19.90234
19.90234
-6.28028
-6.28028
8.434024
-18.49547
-18.49547
-1.131754
-1.131754
-7.716036
-7.716036
-3.978373
7.244644
7.244644
6.785768
6.785768
-28.55124
-4.902369
-4.608879
-21.78953
-21.78953
-24.23312
1.34751
1.34751
3.726739
-6.100914
-14.12372
-26.61542
-26.61542
9.424747
9.424747
20.25258
-3.480475
-0.2492865
-27.54837
-27.54837
-16.63764
-27.65193
-27.65193
-16.8252
-16.8252
-7.16456
-7.16456
22.64651
0.4828289
7.364578
-8.600116
-8.600116
2.107402
9.174298
9.174298
-31.50101
-8.847926
8.19866
6.787206
6.787206
-0.7650676
-0.7650676
-3.05968
1.255551
1.255551
-6.768149
-6.768149
-1.091688
8.364867
-2.706114
22.72419
22.72419
28.47876
28.47876
4.243917
2.366638
2.366638
-4.702922
-4.702922
-6.379884
-2.310582
-2.310582
4.824251
-6.721441
6.921358
6.128781
6.128781
3.209308
3.209308
0.7835314
-2.702068
-15.84764
-3.332108
-3.332108
-7.031169
0.8098798
6.94023
-3.060727
-4.119493
3.332362
-4.416197
-4.416197
9.217181
9.217181
-5.361277
-2.517342
-2.517342
11.5785
11.5785
19.54222
19.54222
82.17099
-0.413527
-0.413527
-2.52017
-2.52017
14.91912
-12.73223
-5.828207
7.67763
7.67763
-18.33508
-4.419782
-4.419782
5.946591
-0.1510019
1.418139
30.13325
30.13325
6.14699
6.14699
20.73299
-12.32196
-12.32196
7.244483
7.244483
0.6802268
0.6802268
0.9602861
-0.774994
-0.774994
1.149261
1.149261
0.285422
-4.496563
1.125535
2.374025
2.374025
-0.6214167
2.467873
2.467873
0.7792721
0.5968745
-0.8867803
0.1077748
0.1077748
-0.2978793
-0.2978793
-0.3024918
0.08579837
0.08579837
-0.1608989
-0.1608989
0.1150582
-1.169709
0.8975738
0.9791263
0.9791263
-0.1897205
-0.1897205
0.2418883
-0.3874606
0.06687165
-0.3352005
-0.3352005
-0.4059843
0.5628403
0.5628403
0.1624387
-0.09649038
-1.449644
-0.8481863
-0.8481863
0.6454697
0.6454697
0.3126855
-0.0342438
-0.0342438
0.7562739
0.7562739
0.1539527
0.3154728
-0.3478001
0.2466807
0.2466807
-0.661623
0.5223069
0.5223069
-0.01078225
0.2245328
0.3348823
0.3348823
-0.9327401
-0.3935169
-0.3935169
1.054061
0.1399075
-0.2535128
0.1867838
0.1867838
-0.3747653
-0.3747653
-0.335824
-0.4881198
-0.4881198
0.4274464
0.4274464
-0.06261902
0.7798902
-0.2195835
-0.242383
-0.242383
0.4477148
-0.6684875
-0.6684875
-0.5501037
-0.6540017
0.5345865
0.5345865
-0.1113776
-0.2878306
-0.2878306
-0.5541719
0.9401844
0.08531372
0.7264569
0.7264569
-0.1269212
-0.1269212
0.7036065
0.6180976
0.6180976
0.7078779
0.7078779
-0.1799262
-0.4941274
-0.02224519
-0.2345058
-0.2345058
-0.526723
-0.003701116
-0.003701116
0.4389144
0.4519227
-1.322369
-0.2189752
-0.2189752
-1.050143
-1.050143
0.5039028
0.1881531
0.01453719
0.9300283
0.9300283
0.3688776
0.3688776
-0.1779325
0.6322418
0.6322418
-0.4221083
-0.4221083
0.3780302
0.3754761
0.3754761
0.6018684
0.7911704
-0.4607985
-0.792963
-0.792963
0.4743058
-0.3791411
-0.1205957
1.10002
1.10002
0.02962266
0.02962266
-0.3254541
-0.01925037
-0.01925037
0.2109811
0.2109811
-0.9882804
-0.9882804
1.239078
0.5131509
0.2929853
0.05716005
0.05716005
-1.553196
0.9083695
0.5248438
0.1113286
-0.9558008
-0.413799
-0.2185901
-0.2185901
0.5706786
0.5706786
-0.5529187
-0.5595313
-0.5595313
0.4323969
0.4323969
-0.9458526
-0.06635898
-0.06635898
0.04884151
0.04884151
0.3578062
0.01332005
0.01332005
0.1257719
0.5846452
0.2246613
0.2246613
-0.4886439
1.373919
1.373919
-0.3196726
0.09831256
-0.5089648
-0.6817957
-0.6817957
-0.06284452
-0.197064
1.218007
1.090493
1.090493
-0.332631
-0.332631
-1.773272
0.122308
1.217466
0.1152004
0.1152004
-0.4921422
-0.3171809
-0.3171809
0.1617908
-0.2501923
-0.1633168
-0.1633168
-0.01964818
0.01420631
0.01420631
-0.03444562
0.5083541
1.041024
-0.5208302
-0.5208302
-0.06091134
-0.06091134
0.8553959
0.5862207
0.5862207
0.01077227
0.01077227
0.1050083
-0.06912469
0.3097377
1.614629
1.614629
0.09131885
-0.7489248
-0.7489248
-0.09792729
0.13457
-0.3283879
-0.01485883
-0.01485883
-0.561949
-0.561949
0.2858217
0.3923668
0.290757
1.071089
1.071089
-0.002789256
-0.002789256
-0.5448444
-0.3839372
-0.3839372
-0.9235989
-0.9235989
0.649114
0.4689897
-2.207909
0.8241134
0.8241134
1.269257
0.1090798
0.1090798
-0.1210174
-0.0315089
-0.1926838
0.02148048
0.02148048
-0.3007023
-0.3007023
0.7013209
0.1624552
0.1624552
0.4767464
0.4767464
-0.9220258
-0.9220258
-0.689069
1.22545
1.22545
-0.03448957
-0.03448957
-0.6129893
-0.1075942
0.3117338
2.760446
2.760446
0.9026654
-1.179406
-1.179406
0.3264924
-0.6467651
0.09779546
-0.2173541
-0.2173541
0.5239257
0.5239257
-5.348495
-1.208403
-1.208403
0.4244613
0.4244613
0.4553597
-0.01681616
0.5412007
-0.937376
-0.937376
-0.3016946
-0.3016946
0.02884565
0.8048266
-1.003751
0.32714
0.32714
0.6389058
-9.690429
-9.690429
0.4104341
-0.3362394
0.660498
-0.6992954
-0.6992954
0.3429821
0.3429821
-0.5632051
0.9764717
0.9764717
-0.397617
-0.397617
-0.3557416
-0.2396188
0.3138787
0.03561482
0.03561482
-0.08833531
1.124376
1.124376
-0.3352561
0.1679591
0.6950975
0.6950975
-0.05027441
-0.5882354
-0.5882354
0.6006457
-0.8320284
0.1182669
-0.7957055
-0.7957055
-0.09489556
-0.09489556
0.2091617
-0.1512419
0.1516616
-0.1127315
-0.1127315
0.4494462
0.4194988
0.4194988
0.2321306
0.2321306
0.2988592
-0.1292924
-0.1292924
-0.506436
0.02231343
0.3053732
0.3053732
0.839698
-0.5582063
-0.5582063
-0.3128844
-0.1927214
0.1591433
0.3195423
0.3195423
-0.1451022
-0.1451022
-1.542252
0.5297463
0.5297463
-0.7859098
-0.7859098
0.5929663
-0.3517019
0.1535167
0.8224906
0.8224906
0.4164834
0.1200029
0.1200029
-0.1185996
-0.1185996
-0.9105958
0.5654845
0.5654845
0.1016708
0.1016708
0.03989952
0.03989952
-0.1615272
0.1559099
0.1559099
-0.1185237
-0.1185237
-0.04719813
-0.2645689
1.172766
