0
0
0
0
0
0
0
0
0
0
0
0
0
0
0
0
0
0
0
0
0
0
0
0
0
0
0
0
0
0
0
0
0
0
0
0
0
0
0
0
0
0
0
0
0
0
0
0
0
0
0
0
0
0
0
0
0
0
0
0
0
0
0
0
0
0
0
0
0
0
0
0
0
0
0
0
0
0
0
0
0
0
0
0
0
0
0
0
0
0
0
0
0
0
0
0
0
0
0
0
0
0
0
0
0
0
0
0
0
0
0
0
0
0
0
0
0
0
0
-0.4694862
0.1532981
-0.680629
-0.680629
-0.5694087
-0.5694087
-0.4584671
-0.4584671
-0.8377931
-0.8377931
1.806886
1.806886
-0.7674024
-0.7674024
0.2884299
0.2884299
1.7748
1.7748
0.3439483
0.3439483
-0.0395184
-0.0395184
-2.247058
-2.247058
-3.416635
-3.416635
-1.788344
-1.788344
-1.29859
-1.29859
0.2434318
-1.523501
-1.523501
-1.523501
0.383121
3.207453
3.207453
0.9796367
0.9796367
0.001492713
0.001492713
-1.370412
-1.370412
0.7526754
0.7526754
-0.5540158
-0.5540158
0.1502593
0.1502593
-0.5041985
-0.5041985
0.1389404
0.1389404
0.7912997
0.7912997
-0.7638253
-0.7638253
-0.1699129
-0.1699129
2.460733
2.460733
-0.3965062
-0.3965062
-0.4711601
-0.4711601
-1.010728
-1.010728
-0.5551395
-0.5551395
-0.2330831
-0.2330831
-0.2330831
-0.2330831
-3.092092
-3.092092
-1.578375
-1.578375
-1.131178
-1.85678
0.4657945
0.4657945
-1.769286
-1.769286
0.8965583
0.8965583
-2.841974
-2.841974
-1.492193
-1.492193
-0.9431457
-0.9431457
-0.5026347
-0.5026347
-0.4581683
-0.4581683
-0.6353397
-0.6353397
-2.146833
-2.146833
-1.413139
-1.413139
-0.1452758
-0.1452758
0.3757604
0.3757604
-1.438648
-1.438648
-0.8615195
-0.8615195
-1.001111
-1.001111
-0.5846609
-0.5846609
-3.654517
-3.654517
-0.718563
-0.6280766
1.086509
1.086509
-3.591266
-2.556524
-1.752123
-1.752123
0.456755
0.456755
2.288889
2.288889
-0.7579854
-0.7579854
-2.169102
-2.169102
0.4421552
0.4421552
-0.3017242
-0.3017242
-2.374409
-2.374409
-0.2799713
-0.2799713
-1.040117
-1.040117
0.7435419
0.7435419
1.831504
1.831504
-1.849862
-1.849862
2.737805
2.737805
-2.50946
-2.50946
-2.66003
-2.66003
6.09611
6.09611
-12.60954
-12.60954
0.7773191
0.7773191
146.005
146.005
-69.06654
-69.06654
5.089824
5.089824
28.41453
28.41453
-1.091749
-1.091749
28.483
28.483
-30.4487
-30.4487
117.7967
117.7967
-17.72414
-17.72414
9.336861
9.336861
13.84743
13.84743
18.3272
18.3272
7.011523
7.011523
-1.333172
-1.333172
1.159179
1.159179
1.607854
1.607854
-1.931549
-0.02797999
-1.36409
-1.36409
-4.235096
-4.235096
0.08203381
0.08203381
-6.373636
-6.373636
1.564048
1.564048
1.017822
1.017822
2.900292
2.900292
-0.6973383
-0.6973383
-9.111918
-9.111918
-2.320379
-2.320379
-15.32517
-15.32517
2.835486
2.835486
-4.053124
-4.053124
1.855091
1.855091
3.717641
3.717641
6.601885
6.601885
0.4089119
0.4089119
-1.324041
-1.324041
-2.462636
-2.462636
0.6476777
-2.126591
-2.126591
17.11728
17.11728
12.27084
12.27084
-0.3630486
-0.3630486
-18.51675
-18.51675
1.17064
1.17064
-0.1286231
-0.1286231
0.2727872
0.2727872
-1.119162
-1.119162
-1.056736
-1.056736
1.090712
1.090712
1.764954
1.764954
-1.871192
-1.871192
0.3939233
0.3939233
-0.2346491
-0.2346491
0.03547297
0.03547297
-4.133097
-4.133097
-0.5681196
-0.2502424
-0.3728577
-0.3728577
-0.8335298
-0.8595764
0.692695
0.692695
-0.6257801
-0.6257801
-2.653433
-2.653433
-0.6005689
-0.6005689
-1.767543
-1.767543
-0.5577067
-0.5577067
-1.468341
-1.468341
-1.652954
-1.652954
-1.659899
-1.659899
0.4472201
0.4472201
-0.9265966
-0.9265966
-2.682787
-2.682787
0.3699886
0.3699886
-0.8527063
-0.8527063
-0.6915771
-0.6915771
-0.870728
-0.870728
-1.324307
-1.324307
-0.7676617
-0.7676617
0.1052184
3.788539
2.670324
2.670324
-0.5839592
-0.6622823
-1.002804
-1.002804
-1.114927
-1.114927
-0.9964259
-0.9964259
0.3912745
0.3912745
0.08150785
0.08150785
0.05367293
0.05367293
-1.858237
-1.858237
-0.8815593
-0.8815593
-0.966921
-0.966921
-0.1598973
-0.1598973
-1.044275
-1.044275
0.7137699
0.7137699
-1.365342
-1.365342
-0.7191338
-0.7191338
-0.1851483
0.4667853
-0.9717245
-0.9717245
-1.609853
-1.609853
0.03789762
0.03789762
-0.1400811
-0.1400811
-1.622712
-1.622712
-2.288198
-2.288198
-4.002039
-4.002039
-3.084092
-3.084092
-5.4133
-5.4133
-4.545387
-4.545387
-7.156361
-7.156361
-2.381373
-2.381373
-8.111335
-8.111335
-10.29144
-10.29144
-0.838792
-0.838792
16.40153
16.40153
-14.79711
-14.79711
4.030221
4.030221
-9.969337
-9.969337
3.53469
3.53469
3.193711
-1.898621
-10.37725
-10.37725
0.1197506
0.1197506
6.361858
6.361858
-0.2334361
-0.2334361
8.299457
8.299457
1.590404
1.590404
-4.932206
-4.932206
-12.76894
-12.76894
-1.890247
-1.890247
1.351253
1.351253
6.200476
6.200476
1.552078
1.552078
-7.282443
-7.282443
14.02175
14.02175
-13.46409
-13.46409
5.697072
5.697072
1.226648
1.226648
4.120725
4.120725
3.561509
-4.543278
-0.2043288
-0.2043288
1.34052
1.34052
-0.8894527
1.746745
1.746745
1.746745
-4.874658
-4.874658
11.33222
11.33222
-6.645206
-6.645206
1.063133
-1.188185
-1.188185
29.5808
29.5808
-11.27401
-11.27401
13.79609
13.79609
-23.50274
-23.50274
10.29963
10.29963
9.678094
9.678094
29.11959
29.11959
38.855
38.855
14.14792
14.14792
2.144933
5.566803
23.07433
23.07433
-16.31381
8.14409
0.09204693
0.09204693
-20.137
-20.137
7.718673
7.718673
11.37822
11.37822
5.632516
5.632516
-7.001568
-7.001568
1.29139
1.29139
-2.98242
-2.98242
1.565318
1.565318
33.22501
33.22501
-3.612351
-3.612351
1.030205
1.030205
14.10304
14.10304
-20.8972
-20.8972
13.1049
13.1049
14.19411
14.19411
0.1236252
1.763883
3.630338
3.630338
1.328911
1.328911
0.04309553
0.04309553
0.4282951
0.4282951
-8.805493
-8.805493
-0.8223974
-0.8223974
0.3197116
0.3197116
-1.059266
-1.059266
-3.37349
-3.37349
-3.895668
-3.895668
12.21933
12.21933
3.282495
3.282495
-21.76513
-21.76513
-2.919119
-2.919119
2.543987
2.543987
-12.2477
-12.2477
0.6515189
0.6515189
-0.7711772
-0.7711772
-0.8284648
-0.8284648
-0.5177978
-0.5177978
-0.4380496
-0.4380496
-0.8845227
-0.8845227
-2.893375
-2.893375
-0.02206553
-0.02206553
-0.6391029
-0.6391029
-0.08870429
-0.08870429
-0.5429837
-0.5429837
-0.3908546
-0.3908546
-0.6937727
-0.6937727
-0.09193604
-0.09193604
-0.06904645
-0.06904645
-0.2898557
-0.2898557
-1.692908
-1.692908
1.807919
1.807919
2.379624
2.379624
-2.027871
-2.027871
-2.146692
-2.146692
-1.199994
-1.199994
1.568682
1.568682
-0.5016721
-0.5016721
-0.5926636
-0.5926636
-1.204019
-1.204019
-1.615993
-1.615993
-0.609788
-0.609788
-1.511733
-1.511733
-0.7664829
-0.7664829
-2.026554
-2.026554
0.2260471
0.2260471
0.4097432
0.4097432
-2.911374
-2.911374
-1.009535
-1.009535
-0.07306896
-0.07306896
-1.081134
-1.081134
0.1122986
0.1122986
-0.3504316
-0.3504316
-0.5355906
-0.5355906
0.1947881
1.881261
-0.5933695
-0.5933695
1.343997
1.343997
-2.00863
-2.00863
-0.3125005
-0.3125005
-1.2919
-1.2919
-0.2953463
-0.2953463
-2.215907
-2.215907
-1.306282
1.131287
1.131287
0.2395051
0.2395051
-2.912266
-2.912266
-1.942978
-1.942978
-0.3259621
-0.3259621
2.657757
2.657757
-2.631511
-2.631511
-1.612597
-1.612597
-2.171946
-2.171946
-0.409705
-0.409705
-0.6383622
-0.6383622
1.066443
1.066443
-0.04814098
-0.1212827
-0.9134586
-0.9134586
-0.7393143
-0.7393143
0.124555
0.124555
-0.4627593
-0.4627593
-0.494948
-0.494948
-0.9295538
-0.9295538
-0.956211
-0.956211
1.077794
1.077794
-3.873565
-3.873565
-0.7686046
-0.7686046
-1.437967
-1.437967
-2.281048
-2.281048
-1.022089
-1.022089
-1.002761
-1.002761
-1.008354
-1.008354
-3.848969
-3.848969
-0.5267158
-0.5267158
-0.4508149
-0.4508149
0.8502495
-0.05127857
1.795105
1.795105
0.2890514
0.2890514
8.017904
8.017904
-4.092387
-4.092387
-12.28342
-12.28342
23.83432
23.83432
-7.73531
-7.73531
-5.050354
-5.050354
6.629328
6.629328
-14.31422
-14.31422
27.64375
27.64375
-14.24833
-14.24833
17.13965
17.13965
4.044473
4.044473
6.481662
6.481662
0.5469287
0.5469287
-3.138713
-3.138713
-2.964374
-2.964374
1.062745
-7.499649
16.32403
16.32403
-4.372835
-4.372835
68.37839
68.37839
-12.22908
-12.22908
-1.9566
-1.9566
16.06967
16.06967
3.099339
3.099339
4.551069
4.551069
21.6156
21.6156
27.66308
27.66308
-5.256539
-5.256539
-7.08236
-7.08236
8.15408
8.15408
-33.84216
-33.84216
2.700072
2.700072
5.882149
5.882149
18.69825
18.69825
-32.76405
-32.76405
18.57865
18.57865
3.316459
3.316459
1.623919
1.623919
2.101329
2.101329
4.842274
4.842274
-9.806488
-9.806488
-11.67987
-11.67987
-6.250988
-6.250988
-4.64607
-4.64607
28.18389
28.18389
21.36205
21.36205
-0.1216469
-0.1216469
-0.5269272
-0.5269272
8.12784
8.12784
-1.961509
-1.961509
-14.85943
-14.85943
-10.63454
-10.63454
15.67647
15.67647
-15.02807
-15.02807
15.48942
0.01916786
-13.65952
-13.65952
17.45499
17.45499
15.59081
15.59081
11.35228
11.35228
-2.370708
-2.370708
2.033792
2.033792
-27.36382
-27.36382
1.360641
1.360641
18.53793
18.53793
6.192864
6.192864
6.125754
2.261434
2.261434
2.261434
-0.06941084
29.41347
29.41347
29.41347
-18.42707
-18.42707
-7.166061
-63.59061
-63.59061
10.9608
10.9608
-3.564119
-3.564119
-9.5078
-9.5078
-7.105119
-0.472376
-8.254846
-8.254846
-9.273334
-9.273334
6.782075
6.782075
-2.185836
-2.185836
-36.18787
-36.18787
5.774057
5.774057
-11.6183
-11.6183
-3.664243
-3.664243
7.925221
7.925221
26.22077
26.22077
-23.49071
-23.49071
10.40226
10.40226
1.133233
1.133233
19.83753
19.83753
6.872223
6.872223
-4.170597
-4.170597
47.62188
47.62188
2.616025
2.616025
6.860724
-1.140193
11.70834
11.70834
-4.437373
-4.437373
0.5867499
0.5867499
-5.79661
-5.79661
-5.440443
-5.440443
-31.43579
-31.43579
0.4387089
0.4387089
6.04164
6.04164
-12.21027
-12.21027
-8.168699
-8.168699
-3.854198
-3.854198
18.39095
18.39095
-4.415552
-4.415552
-0.7011216
-0.7011216
2.331504
2.331504
5.330061
5.330061
-1.327491
-1.327491
-10.87933
-10.87933
-5.600002
-5.600002
-9.646962
-9.646962
9.363301
9.363301
-0.6071315
-0.6071315
-11.65836
-11.65836
-8.922749
-8.922749
-21.43349
-21.43349
-9.32142
-9.32142
0.04728923
0.04728923
-5.15498
-5.15498
-2.492514
-2.492514
-3.647721
-3.647721
-5.126505
-5.126505
-5.298985
-5.298985
0.967051
0.967051
0.2561223
0.2561223
-7.405381
-7.405381
2.555269
2.555269
-4.34811
-4.34811
-2.229328
-2.229328
0.3334468
0.3334468
-1.431315
-1.431315
0.4130064
0.4130064
-2.898682
-2.898682
-4.339959
-4.339959
0.6168639
0.6168639
-4.753036
-4.753036
5.468527
5.468527
-3.170995
-3.170995
0.1039439
0.1039439
0.3365498
0.3365498
-0.0550544
-0.0550544
-1.696349
-1.696349
-1.160701
-1.160701
0.02496982
0.02496982
0.6475897
0.6475897
-0.178543
-0.178543
-1.220054
-1.220054
-1.114492
-0.566609
-0.6560593
-0.6560593
-1.418441
-1.418441
-0.4088651
-0.4088651
-0.2322659
-0.2322659
-0.9317099
-0.9317099
-1.313288
-1.313288
-0.8050524
-0.8050524
-2.032499
-2.032499
-1.470321
-1.470321
0.3975045
0.3975045
-0.9074104
-0.9074104
-0.4861132
-0.4861132
-1.978906
-1.978906
0.03776767
0.03776767
-0.7127887
0.4649775
0.4649775
0.3598288
0.3598288
-1.719078
-1.719078
-1.176065
-1.345561
0.9618825
0.9618825
-0.2826866
-0.2826866
-1.555677
-1.555677
2.260134
2.260134
0.1106375
0.1106375
-0.5370164
-0.5370164
0.03211303
0.03211303
-0.9960051
-0.9960051
0.6488686
0.6488686
-0.9437659
-0.9437659
-0.1113428
-0.1113428
0.5245762
0.5245762
-0.9004303
-0.9004303
-3.079374
-3.079374
14.24923
14.24923
2.180565
2.180565
3.06412
3.06412
-6.38934
-6.38934
-5.606453
-5.606453
1.569922
1.569922
2.749675
2.749675
1.268944
1.268944
1.497847
1.497847
0.8369834
0.8369834
0.0701149
0.0701149
-0.5592784
-0.5592784
-0.8977817
-0.8977817
-1.209831
-1.209831
-1.399323
-1.399323
-0.3286666
-0.3286666
-0.03407131
-0.03407131
-3.412079
-3.412079
-0.3900951
-0.3900951
