0	0	0	0
0	0	0	0
0	0	0	0
0	0	0	0
0	0	0	0
0	0	0	0
0	0	0	0
0	0	0	0
0	0	0	0
0	0	0	0
0	0	0	0
0	0	0	0
0	0	0	0
0	0	0	0
0	0	0	0
0	0	0	0
0	0	0	0
0	0	0	0
0	0	0	0
0	0	0	0
0	0	0	0
0	0	0	0
0	0	0	0
0	0	0	0
0	0	0	0
0	0	0	0
0	0	0	0
0	0	0	0
0	0	0	0
0	0	0	0
0	0	0	0
0	0	0	0
0	0	0	0
0	0	0	0
0	0	0	0
0	0	0	0
0	0	0	0
0	0	0	0
0	0	0	0
0	0	0	0
0	0	0	0
0	0	0	0
0	0	0	0
0	0	0	0
0	0	0	0
0	0	0	0
0	0	0	0
0	0	0	0
0	0	0	0
0	0	0	0
0	0	0	0
0	0	0	0
0	0	0	0
0	0	0	0
0	0	0	0
0	0	0	0
0	0	0	0
0	0	0	0
0	0	0	0
0	0	0	0
0	0	0	0
0	0	0	0
0	0	0	0
0	0	0	0
0	0	0	0
0	0	0	0
0	0	0	0
0	0	0	0
0	0	0	0
0	0	0	0
0	0	0	0
0	0	0	0
0	0	0	0
0	0	0	0
0	0	0	0
0	0	0	0
0	0	0	0
0	0	0	0
0	0	0	0
0	0	0	0
0	0	0	0
0	0	0	0
0	0	0	0
0	0	0	0
0	0	0	0
0	0	0	0
0	0	0	0
0	0	0	0
0	0	0	0
0	0	0	0
0	0	0	0
0	0	0	0
0	0	0	0
0	0	0	0
0	0	0	0
0	0	0	0
0	0	0	0
0	0	0	0
0	0	0	0
0	0	0	0
0	0	0	0
0	0	0	0
0	0	0	0
0	0	0	0
0	0	0	0
0	0	0	0
0	0	0	0
-0.029	0	0	0
0	0	0	0
0	0	0	0
0	0	0	0
0	0.6927457	0.01880805	0
0	0.6927457	0.1812042	0
0	0.2200829	0.8457793	0
0	-0.8883648	2.620166	0.0078125
0	3.396651	6.364666	0.015625
0	1.244016	13.72801	0.015625
0	1.244016	28.27856	0.015625
0	-0.161013	56.13126	0.015625
0	-1.46502	105.043	0.015625
0	-1.46502	182.3137	0.015625
0	0.6996579	292.7082	0.015625
0	0.4119585	437.5564	0.015625
0	-2.287147	615.3239	0.015625
0	2.267614	822.8663	0.015625
0	2.267614	1057.084	0.015625
0	2.167447	1317.014	0.015625
0	2.167447	1604.639	0.015625
0	0.8337014	1923.209	0.015625
0	0.588919	2274.563	0.015625
0	0.588919	2657.333	0.015625
0	0.1340422	3067.152	0.015625
0	0.1340422	3498.728	0.015625
0	-0.1843561	3947.364	0.015625
0	0.4252757	4408.634	0.015625
0	0.4154988	4877.868	0.015625
0	3.086591	5350.699	0.015625
0	3.086591	5824.021	0.015625
0	-0.9138147	6296.292	0.015625
0	0.3395847	6766.631	0.015625
0	0.3395847	7233.572	0.015625
0	0.5720761	7695.557	0.015625
0	0.8232235	8152.485	0.015625
0	-0.2670597	8605.607	0.015625
0	-0.2670597	9055.747	0.015625
0	-0.09020403	9501.826	0.015625
0	-1.775307	9940.976	0.015625
0	-1.775307	10369.84	0.015625
0	-0.2762711	10785.3	0.015625
0	0.2287153	11184.4	0.015625
0	-0.3518768	11564.38	0.015625
0	0.132245	11922.87	0.015625
0	0.132245	12257.92	0.015625
0	-0.5027819	12568.21	0.015625
0	-0.5027819	12852.91	0.015625
0	0.8029342	13111.35	0.015625
0	-0.1078921	13342.86	0.015625
0	-0.1078921	13547.11	0.015625
0	-0.3079908	13724.58	0.015625
0	-0.3079908	13876.62	0.015625
0	0.387868	14005	0.015625
0	-0.954932	14111.12	0.015625
0	-1.644914	14195.62	0.015625
0	0.6544016	14258.8	0.015625
0	0.6544016	14301.13	0.015625
0	-0.5431653	14323.05	0.015625
0	0.2914873	14325	0.015625
0	0.2914873	14307.68	0.015625
0	-0.871562	14271.63	0.015625
0	-0.9328948	14217.16	0.015625
0	-0.244396	14144.53	0.015625
0	-0.244396	14053.99	0.015625
0	0.7613685	13945.8	0.015625
0	-3.51967	13820.59	0.015625
0	-3.51967	13680.22	0.015625
0	-0.2113288	13528.54	0.015625
0	-0.2269428	13370.91	0.015625
0	-0.02843884	13212.15	0.015625
0	0.1441536	13054.71	0.015625
0	0.1441536	12899.17	0.015625
0	0.2823669	12746.01	0.015625
0	0.2823669	12596.09	0.015625
0	-0.007167795	12450.01	0.015625
0	4.184985	12307.58	0.015625
0	4.184985	12168.48	0.015625
0	-0.09964452	12033.34	0.015625
0	-0.09964452	11903.82	0.015625
0	-0.4489336	11781.16	0.015625
0	0.1474716	11665.45	0.015625
0	-0.4698135	11556.92	0.015625
0	-0.2086618	11457.16	0.015625
0	-0.2086618	11368.52	0.015625
0	-0.1700307	11292.92	0.015625
0	0.6082327	11231.05	0.015625
0	0.6082327	11182.07	0.015625
0	0.5805356	11143.82	0.015625
0	-1.728595	11114.06	0.015625
0	0.8574979	11091.56	0.015625
0	1.208712	11076.65	0.015625
0	1.208712	11071.37	0.015625
0	-0.9118792	11078.89	0.015625
0	-0.9118792	11102.41	0.015625
0	-0.04634543	11144.23	0.015625
0	-0.5709407	11205.21	0.015625
0	-0.5200598	11284.34	0.015625
0	-0.3752925	11378.79	0.015625
0	-0.3752925	11485.08	0.015625
0	0.1832839	11600.23	0.015625
0	0.1832839	11721.64	0.015625
0	-0.4945035	11846.52	0.015625
0	0.3441305	11971.72	0.015625
-0.029	0.3441305	12094.16	0.015625
0	-1.089978	12211.29	0.015625
0	-1.089978	12321.14	0.015625
0	-0.8368235	12422.06	0.015625
0	0.3060394	12512.52	0.015625
0	0.3060394	12591.54	0.015625
0	0.4912748	12658.95	0.015625
0	0.4912748	12715.16	0.015625
0	-1.901197	12760.72	0.015625
0	0.1465215	12795.8	0.015625
0	0.1465215	12820.63	0.015625
0	1.291318	12836.87	0.015625
0.03	-1.746478	12848.24	0.015625
0	1.457971	12860.06	0.015625
0	5.298046	12878.52	0.015625
0	5.298046	12909.89	0.015625
0	-0.7226751	12958.99	0.015625
0	-0.7226751	13028.1	0.015625
0	-0.09534462	13117.69	0.015625
0	-0.6866074	13227.87	0.015625
0	-0.6866074	13358.51	0.015625
0	0.5262832	13508.38	0.015625
0	0.5262832	13674.58	0.015625
0	1.748279	13853	0.015625
0	1.748279	14039.29	0.015625
0	0.5396319	14229.68	0.015625
0	0.07592838	14421.08	0.015625
0.03	0.07592838	14610.64	0.015625
0	-1.267447	14795.3	0.015625
0	-1.267447	14971.9	0.015625
0	0.09933364	15137.69	0.015625
0	0.4234222	15290.53	0.015625
0	0.7455161	15428.6	0.015625
0	-0.09415322	15550.13	0.015625
0	-0.09415322	15653.82	0.015625
0	2.001038	15739.21	0.015625
0	-0.01826737	15806.21	0.015625
0	-0.7445996	15854.63	0.015625
0	-0.7445996	15885.04	0.015625
0	-0.7445996	15899.57	0.015625
0	-0.0319312	15901.08	0.015625
0	0.6389725	15891.62	0.015625
0	0.6389725	15871.76	0.015625
0	0.3825937	15840.74	0.015625
0	0.3825937	15797.46	0.015625
0	-0.1572544	15741.16	0.015625
0	0.1237842	15671.47	0.015625
0	-0.2373996	15588.37	0.015625
0	-0.9569451	15492.14	0.015625
0	-0.9569451	15383.25	0.015625
0	0.3304964	15262.08	0.015625
0	0.7248857	15128.76	0.015625
0	2.111948	14983.4	0.015625
0	0.1825544	14826.56	0.015625
0	-0.5462582	14659.7	0.015625
0	1.29688	14485.38	0.015625
0	1.29688	14306.54	0.015625
0	0.2897757	14125.16	0.015625
0	0.281249	13941.66	0.015625
0	0.281249	13755.66	0.015625
0	-0.1402715	13566.87	0.015625
0	-0.1402715	13375.06	0.015625
0	-0.6105844	13179.88	0.015625
0	0.7212074	12981.04	0.015625
0	0.7212074	12778.66	0.015625
0	0.09515975	12573.56	0.015625
0	0.09515975	12367.15	0.015625
0	0.9177521	12160.86	0.015625
0	0.008984446	11955.62	0.015625
0	0.008984446	11751.86	0.015625
0	-0.1200382	11550.04	0.015625
0	-0.1200382	11350.81	0.015625
0	0.1256197	11154.97	0.015625
0	0.5086115	10963.05	0.015625
0	0.5086115	10775.1	0.015625
0	-0.4085025	10590.63	0.015625
0	-0.4085025	10408.88	0.015625
0	0.5249392	10229.2	0.015625
0	0.2599043	10051.33	0.015625
0	0.2599043	9875.068	0.015625
0	-0.1311876	9700.145	0.015625
0	-0.1311876	9526.56	0.015625
0	0.7785691	9354.765	0.015625
0	0.7785691	9185.299	0.015625
0	-1.391703	9018.269	0.015625
0	0.8811931	8853.377	0.015625
0	0.8811931	8690.815	0.015625
0	-0.2626236	8532.273	0.015625
0	0.8242472	8380.85	0.015625
0	-0.6594472	8239.563	0.015625
0	-0.2977858	8109.904	0.015625
0	-0.2977858	7992.293	0.015625
0	0.4579146	7887.799	0.015625
0	0.4579146	7798.633	0.015625
0	-0.198595	7727.108	0.015625
0	-2.197161	7674.515	0.015625
0	-2.197161	7640.719	0.015625
0	0.3229314	7624.46	0.015625
0	0.3229314	7623.764	0.015625
0	-0.1568268	7636.34	0.015625
0	-0.8694469	7660.354	0.015625
0	-0.9414966	7694.889	0.015625
0	0.7795836	7739.437	0.015625
0	0.7795836	7793.016	0.015625
-0.029	-0.008898248	7853.873	0.015625
0	-1.025128	7920.237	0.015625
0	-1.025128	7991.059	0.015625
0	2.083689	8065.69	0.015625
0	0.3171984	8143.294	0.015625
0	-0.295947	8223.226	0.015625
0	-0.5647277	8306.279	0.015625
0	-0.5647277	8394.998	0.015625
0	-0.3044906	8492.315	0.015625
0	-0.3044906	8599.94	0.015625
0	-0.8769362	8717.58	0.015625
0	0.5463645	8843.112	0.015625
0	0.1491373	8973.542	0.015625
0	-0.7629954	9106.19	0.015625
0	-0.7629954	9239.317	0.015625
0	-0.2140335	9371.847	0.015625
0	-0.2140335	9502.724	0.015625
0	-0.07247864	9630.583	0.015625
0	-1.086562	9753.844	0.015625
0	-1.086562	9871.015	0.015625
0	-0.7121499	9981.013	0.015625
0	-0.7121499	10083.23	0.015625
0	0.916521	10177.18	0.015625
0	0.1867135	10262.22	0.015625
0.03	0.9593922	10337.93	0.015625
0	-0.6649368	10405.12	0.015625
0	-0.6649368	10466.11	0.015625
0	-0.552687	10524.33	0.015625
0	-0.7364094	10583.28	0.015625
0	-0.7364094	10645.5	0.015625
0	-0.5996059	10711.77	0.015625
0	0.8157999	10781.07	0.015625
0	-0.3244819	10851.58	0.015625
0	0.4900265	10922.06	0.015625
0	0.4900265	10992.72	0.015625
0	-0.1717063	11065	0.015625
0	-0.1717063	11140.57	0.015625
0	0.4283114	11220.2	0.015625
0	-0.1504014	11303.19	0.015625
0	-0.1504014	11387.61	0.015625
0	-0.4820812	11471.09	0.015625
0	-0.4820812	11551.48	0.015625
0	0.4572532	11627.08	0.015625
0	0.4572532	11696.49	0.015625
0	1.846344	11758.29	0.015625
0	-0.6264029	11811.49	0.015625
0	-0.6264029	11856.38	0.015625
0	0.03194602	11895.08	0.015625
0	0.03194602	11931	0.015625
0	-1.04446	11967.43	0.015625
0	-0.0529439	12006.36	0.015625
0	0.471324	12048.26	0.015625
0	1.208022	12092.61	0.015625
0	1.208022	12138.47	0.015625
0	-0.9132362	12184.68	0.015625
0	0.7576975	12229.86	0.015625
0	0.7576975	12272.74	0.015625
0	3.506343	12313.36	0.015625
0	-0.1577962	12353.89	0.015625
0	-0.07275755	12398.7	0.015625
0	-0.3516326	12453.94	0.015625
0	-0.3516326	12526.43	0.015625
0	-1.29378	12621.84	0.015625
0	-1.29378	12743.15	0.015625
0	0.4102212	12890.14	0.015625
0	-0.2357596	13059.78	0.015625
0.03	-0.2357596	13247.58	0.015625
0	0.3093668	13449.51	0.015625
0	0.3093668	13662.84	0.015625
0	1.604079	13885.24	0.015625
0	1.604079	14113.67	0.015625
0	-0.5676152	14344.36	0.015625
0	-0.9416664	14573.7	0.015625
0	-0.9416664	14798.43	0.015625
0	0.1507863	15015.42	0.015625
0	0.1507863	15222.04	0.015625
0	0.8829725	15416.81	0.015625
0	-0.1197116	15599.21	0.015625
0	-0.6483041	15769.37	0.015625
0	3.047889	15927.57	0.015625
0	3.047889	16073.58	0.015625
0	-0.6115792	16206.65	0.015625
0	1.408852	16326.32	0.015625
0.03	1.408852	16432.49	0.015625
0	-0.7434169	16525.08	0.015625
0	0.6474009	16604.71	0.015625
0	2.535453	16672.55	0.015625
0.03	5.117317	16728.92	0.015625
0	5.117317	16773.12	0.015625
0	-0.6357883	16804.74	0.015625
0.03	-0.6357883	16823.9	0.015625
0	-1.112872	16830.78	0.015625
0	1.273719	16826.77	0.015625
0	1.273719	16815.86	0.015625
0	0.8491977	16803.8	0.015625
0	0.8491977	16796.21	0.015625
0	-0.6292223	16796.77	0.015625
0	-0.5922374	16806.11	0.015625
0	-1.20358	16822.27	0.015625
0	0.3180091	16843.08	0.015625
0	0.3180091	16867.91	0.015625
0	0.5087183	16897.48	0.015625
0	0.5087183	16932.76	0.015625
0	-0.8314278	16974.08	0.015625
0	0.8350938	17020.28	0.015625
0	2.427296	17068.92	0.015625
0	0.9283117	17117.64	0.015625
0	0.9283117	17165.01	0.015625
0	0.3007978	17209.59	0.015625
0	0.3861482	17249.54	0.015625
0	0.3861482	17283.62	0.015625
0	-0.5688227	17311.58	0.015625
0	0.2735127	17333.38	0.015625
0	0.07599452	17348.27	0.015625
0	-0.8534471	17354.97	0.015625
0	-0.8534471	17352.6	0.015625
-0.029	-0.06955267	17340.86	0.015625
0	-0.06955267	17319.38	0.015625
0	2.017602	17287.4	0.015625
0	-0.1057213	17244.26	0.015625
0	-0.1057213	17190.32	0.015625
0	0.5458511	17127.61	0.015625
0	0.5458511	17059.43	0.015625
0	-0.9722349	16989.05	0.015625
0	-0.6309263	16918.58	0.015625
0	-0.6309263	16848.72	0.015625
0	-0.229061	16779.3	0.015625
0	-0.229061	16709.66	0.015625
0	-0.7754263	16638.94	0.015625
0	-0.2250352	16565.93	0.015625
0	-0.2250352	16489.1	0.015625
0	1.319192	16406.96	0.015625
0	-0.3595021	16318.83	0.015625
0	0.3878179	16225.36	0.015625
0	0.3878179	16128.7	0.015625
0	0.1719816	16032.08	0.015625
0	0.3532856	15938.72	0.015625
0	0.3532856	15850.71	0.015625
0	-0.6570699	15768.28	0.015625
0	-0.8604323	15689.95	0.015625
0	1.223752	15613.34	0.015625
0	-1.166063	15536.16	0.015625
0	-1.166063	15457.37	0.015625
0	0.4740578	15377.86	0.015625
0	0.4740578	15299.97	0.015625
0	-0.6809914	15225.99	0.015625
0	0.10854	15156.71	0.015625
0	0.10854	15091.35	0.015625
0	-2.792255	15028.27	0.015625
0	-2.792255	14965.64	0.015625
0	-2.792255	14902	0.015625
0	1.053637	14837.13	0.015625
0	0.08101336	14772.46	0.015625
0	-0.7135307	14711.17	0.015625
0	-0.7135307	14657.61	0.015625
0	-0.7795012	14616	0.015625
0	1.126203	14588.77	0.015625
0	1.126203	14575.67	0.015625
0	-0.5432732	14574.59	0.015625
0	-0.4348341	14583.37	0.015625
0	-0.5975635	14600.33	0.015625
0	1.182871	14623.47	0.015625
0	1.182871	14650.5	0.015625
0	0.3211407	14679.91	0.015625
0	0.3211407	14711.47	0.015625
0	0.1964573	14745.22	0.015625
0	0.1964573	14780.34	0.015625
0	-0.2234848	14814.88	0.015625
0	0.3660563	14846.58	0.015625
0	0.3660563	14873.79	0.015625
0	-1.249121	14895.56	0.015625
0	-1.249121	14911.17	0.015625
0	-0.7253259	14919.5	0.015625
0	-0.2425824	14919.37	0.015625
0	-0.2425824	14910.05	0.015625
0	0.7811935	14891.32	0.015625
0	0.7811935	14863.17	0.015625
0	-0.2150779	14825.66	0.015625
0	-0.7099242	14778.87	0.015625
0	-0.7099242	14722.51	0.015625
0	-0.123496	14655.9	0.015625
0	0.582571	14578.19	0.015625
0	0.8665444	14488.81	0.015625
0	0.6482483	14387.44	0.015625
0	0.6482483	14273.84	0.015625
0	-0.1088151	14147.81	0.015625
0	-0.1088151	14009.35	0.015625
0	-1.741589	13858.87	0.015625
0	0.2366238	13697.5	0.015625
0	0.2366238	13527.45	0.015625
0	0.5720815	13352.25	0.015625
0	0.5720815	13176.32	0.015625
0	-0.8975827	13003.96	0.015625
0	0.6424602	12838	0.015625
0	-0.5300197	12679.35	0.015625
0	0.9206909	12528.38	0.015625
0	0.9206909	12386.95	0.015625
0	0.1886208	12258.85	0.015625
0	0.1886208	12148.18	0.015625
0	-0.2789615	12057.58	0.015625
0	0.4464921	11987.01	0.015625
0	0.8970289	11934.27	0.015625
0	-0.4255131	11896.75	0.015625
0	-0.4255131	11872.49	0.015625
0	-1.356336	11859.53	0.015625
0	0.7162727	11855.64	0.015625
0	0.7162727	11859.42	0.015625
0	-1.006632	11871.16	0.015625
0	0.7967086	11892.17	0.015625
0	-1.024976	11922.93	0.015625
0	-1.024976	11962.44	0.015625
0	-1.077988	12010.16	0.015625
0	0.5070966	12067.68	0.015625
0	0.5070966	12137.85	0.015625
0	-0.5788353	12223.05	0.015625
0	-2.017151	12324.16	0.015625
0	-2.017151	12440.15	0.015625
0.03	-0.9602787	12568.26	0.015625
0	-0.9602787	12704.75	0.015625
0	0.5672972	12845.8	0.015625
0	-1.295653	12988.46	0.015625
0	-1.295653	13131.31	0.015625
0	0.02437443	13274.53	0.015625
0	0.02437443	13419.21	0.015625
0	-0.6258886	13565.93	0.015625
0	-0.6258886	13713.78	0.015625
0	-1.201187	13860.31	0.015625
0	0.2615659	14002.36	0.015625
0	0.8854128	14137.04	0.015625
0	-0.3451361	14262.34	0.015625
0	-0.3451361	14377.08	0.015625
0	-0.1949058	14480.15	0.015625
0	3.420481	14570.24	0.015625
0	3.420481	14646.71	0.015625
0	-0.2834234	14710.58	0.015625
0	-0.6326903	14764.12	0.015625
0	0.6203503	14809	0.015625
0	0.9559448	14845.12	0.015625
0	0.9559448	14871.5	0.015625
0	0.04464867	14887.41	0.015625
0	0.04464867	14892.15	0.015625
0	5.080649	14884.65	0.015625
0.03	0.8216801	14864.03	0.015625
0	0.8216801	14831.44	0.015625
0	0.5301087	14791.88	0.015625
0	0.5301087	14753.72	0.015625
0	0.434954	14726.14	0.015625
0	0.820806	14716.2	0.015625
0	-0.02709695	14727.12	0.015625
0	-0.3867545	14758.37	0.015625
0	-0.3867545	14806.73	0.015625
0	6.931768	14867.89	0.015625
0	1.446187	14938.41	0.015625
0	1.446187	15018.5	0.015625
0	-2.553461	15114	0.015625
0	0.6475851	15235.78	0.015625
0	0.5673913	15397.02	0.015625
0	0.5673913	15609.99	0.015625
0	-0.9972824	15883.34	0.015625
0.03	7.977109	16220.57	0.015625
0	7.977109	16620.85	0.0234375
0	-1.33685	17081.69	0.0234375
0	-0.06081665	17599.93	0.0234375
0	0.6110361	18169.97	0.0234375
0	-0.3141071	18783.8	0.0234375
0	-0.3141071	19434.36	0.0234375
0	0.5006863	20116.84	0.0234375
0	0.5006863	20826.47	0.0234375
0.03	0.234916	21556.58	0.0234375
0	-0.586396	22298.39	0.0234375
0	-0.586396	23042	0.0234375
0	-0.2596115	23777.63	0.0234375
0	-0.2596115	24496.4	0.0234375
0	1.078194	25190.38	0.0234375
0	-0.09245322	25852.76	0.0234375
0	-0.653821	26478.25	0.015625
0	-0.7323648	27063.32	0.015625
0	-0.7323648	27605.84	0.015625
0	-1.070283	28104.27	0.015625
0	1.034729	28556.98	0.015625
0	1.034729	28962.38	0.015625
0	6.543524	29319.59	0.0234375
0	0.4952183	29629.66	0.0234375
-0.029	-0.2649148	29897.17	0.0234375
0	-4.300212	30131.19	0.0234375
0	-4.300212	30344.3	0.0234375
0	-0.8381205	30549.74	0.0234375
0	-0.8381205	30757.83	0.0234375
0	-2.869193	30973	0.0234375
0	2.282513	31193.17	0.0234375
0	2.5052	31412.34	0.0234375
0	0.5226967	31624.42	0.0234375
0	0.5226967	31825.49	0.0234375
0	-1.025842	32013.41	0.0234375
0	-1.025842	32185.88	0.0234375
0.03	-1.360124	32339.4	0.0234375
0	0.7061226	32470.59	0.0234375
0	0.7061226	32577.73	0.0234375
0	1.467211	32660.96	0.0234375
0	1.467211	32721.42	0.0234375
0	0.8242521	32760.27	0.0234375
0	-2.141733	32777.95	0.0234375
0	4.484282	32774.11	0.0234375
0	-0.8686379	32749.2	0.0234375
0	-0.8686379	32707.12	0.0234375
0	-1.66368	32656.85	0.0234375
0	-10.41381	32610.75	0.0234375
0	-10.41381	32579.51	0.03125
0	-8.747535	32567.45	0.03125
0	-5.552727	32573.38	0.03125
0	1.075445	32595.88	0.03125
0	-10.50918	32634.96	0.03125
0	-10.50918	32689.84	0.0390625
0	2.552617	32760.57	0.0390625
0	2.552617	32851.27	0.0390625
0	-0.1719995	32966.51	0.0390625
0	3.723478	33105.48	0.0390625
0	-8.857887	33262.3	0.0390625
0	-17.63374	33430.07	0.046875
0	-17.63374	33604.7	0.046875
0	-5.490192	33786.53	0.0546875
0	-5.490192	33979.15	0.0546875
0	1.968023	34188.25	0.0546875
0	-23.36869	34422.63	0.0546875
0	-23.36869	34696.96	0.2421875
0	-10.54344	35034.34	0.25
0	-10.54344	35462.9	0.2578125
0	-20.67338	36005.24	0.2890625
0	-13.70211	36669.14	0.296875
0	5.817447	37447.46	0.2890625
0	-34.01302	38325.07	0.34375
0	-34.01302	39290.6	0.3984375
0	14.92643	40349.89	0.40625
0	-21.98853	41523.66	0.421875
0	-21.98853	42828.09	0.4453125
0	4.162264	44272.48	0.4296875
0	14.54664	45878.39	0.4296875
0	-14.92653	47680.89	0.4296875
0.206	2.159194	49709.55	0.40625
0.264	2.159194	51980.34	0.390625
0.118	-2.738903	54501.14	0.3671875
0.088	-2.738903	57274.27	0.3515625
0.03	19.88679	60291.94	0.3671875
0	-2.640445	63533.89	0.3515625
0	-2.640445	66974.38	0.3359375
0	16.98934	70592.81	0.34375
0	16.98934	74374.95	0.3515625
0	16.66428	78301.92	0.359375
0	16.66428	82340.21	0.3671875
0.059	-14.09023	86444.54	0.3671875
0.176	-3.875205	90568.56	0.359375
0.176	-3.875205	94674.23	0.3515625
0.264	-24.2382	98739.8	0.3671875
0.293	-24.2382	102759.2	0.3828125
0.381	5.336827	106727.9	0.375
0.469	-9.753237	110631.2	0.375
0.469	-9.753237	114449.8	0.375
0.499	12.5178	118171.1	0.375
0.499	12.5178	121790.6	0.375
0.469	-5.189677	125301.8	0.3671875
0.528	34.04472	128687.8	0.390625
0.499	34.04472	131928.6	0.40625
0.586	-16.92178	135016.2	0.4140625
0.586	-16.64941	137957	0.4140625
0.645	8.737601	140754.4	0.4140625
0.733	5.321836	143398.6	0.40625
0.792	5.321836	145874.2	0.3984375
0.85	-5.596873	148166.5	0.3984375
0.85	-5.596873	150261.4	0.390625
0.879	22.0815	152150.7	0.3984375
0.909	-9.772679	153831.8	0.3984375
0.909	-13.20555	155303.1	0.3984375
0.938	4.304833	156574.5	0.390625
0.938	4.304833	157677.8	0.3828125
0.967	4.606584	158652	0.3828125
0.997	4.606584	159520.5	0.375
1.026	21.14895	160284.3	0.3828125
1.084	-34.00461	160936.6	0.3984375
1.114	-16.51836	161486.4	0.3984375
1.143	11.58418	161975.7	0.3984375
1.114	11.58418	162474.5	0.3984375
1.143	-7.053617	163055.8	0.3984375
1.202	14.30298	163767	0.3984375
1.202	14.30298	164622.9	0.3984375
1.26	32.07964	165616.4	0.4140625
1.29	-48.39347	166736.2	0.4375
1.319	-19.66362	167986.5	0.4375
1.377	19.41654	169405.7	0.4453125
1.436	19.41654	171067.4	0.4453125
1.465	-16.77332	173051.3	0.453125
1.465	-16.77332	175406.5	0.453125
1.495	24.666	178136.9	0.4609375
1.524	-13.91451	181204.3	0.4609375
1.524	-13.91451	184549.9	0.4609375
1.553	-20.66688	188131.3	0.46875
1.583	-20.66688	191944.4	0.46875
1.641	22.18667	196005.1	0.4765625
1.729	-0.2755843	200311.7	0.46875
1.758	-1.109015	204827.6	0.453125
1.846	-88.06702	209507.3	0.5078125
1.846	-88.06702	214342.2	0.828125
1.905	19.17168	219372.5	0.796875
1.993	36.37226	224653.6	0.859375
1.993	36.37226	230199.1	0.90625
2.081	6.46003	235962.5	0.8203125
2.081	6.46003	241887.5	0.7421875
2.081	24.00973	247952.9	0.75
2.11	24.00973	254157.9	0.7578125
2.139	3.438665	260486	0.6640625
2.227	-8.834533	266887.2	0.6171875
2.256	-1.227	273283.6	0.578125
2.344	-29.85273	279589.7	0.6015625
2.344	4.120027	285735.6	0.578125
2.403	-18.5927	291682.8	0.578125
2.432	45.49131	297431.7	0.625
2.432	45.49131	303023.6	0.703125
2.52	-6.733674	308532.1	0.6640625
2.52	-6.733674	314036	0.6328125
2.549	16.19992	319577.2	0.625
2.579	-36.89475	325134.5	0.6640625
2.579	-36.89475	330637.6	0.6953125
2.608	-21.06972	336007.7	0.6953125
2.637	-21.06972	341186.3	0.6953125
2.754	-1.658196	346136.1	0.65625
2.813	0.6982899	350821.1	0.625
2.813	-52.36928	355194	0.6796875
2.901	-19.30671	359202.2	0.6796875
2.93	-19.30671	362806.8	0.671875
2.959	-3.151096	366004.2	0.6484375
2.989	1.465365	368830.4	0.625
2.989	1.465365	371342.8	0.6015625
3.018	-55.43906	373594.4	0.6484375
3.018	-1.586897	375621.8	0.625
3.106	-40.97442	377457.2	0.6484375
3.194	-7.954129	379154.8	0.6328125
3.194	-7.954129	380805.6	0.625
3.252	2.4871	382526.8	0.6015625
3.252	2.4871	384430.8	0.5859375
3.282	6.105275	386591.5	0.578125
3.282	-12.50362	389025.9	0.5703125
3.282	-12.50362	391695.9	0.5703125
3.34	-4.545615	394525.7	0.5625
3.37	-4.545615	397421.8	0.546875
3.458	-13.13022	400287.3	0.546875
3.487	-13.13022	403028.8	0.546875
3.516	-27.31205	405562.8	0.5546875
3.575	3.053712	407820.5	0.5390625
3.575	3.053712	409756	0.53125
3.575	-0.4610678	411350.6	0.5234375
3.575	-0.4610678	412608.8	0.5078125
3.604	-8.540331	413542.5	0.5078125
3.692	-4.340311	414154.4	0.4921875
3.721	7.832963	414428.7	0.4921875
3.78	4.094835	414336.7	0.4765625
3.809	4.094835	413849.5	0.28125
3.868	-4.759686	412943.4	0.2734375
3.663	-7.954292	411599.5	0.2734375
3.604	-7.954292	409807.7	0.2734375
3.458	-0.8412873	407568.2	0.25
3.428	-3.6354	404888.2	0.2421875
3.399	-31.7326	401776.7	0.2890625
3.37	-38.62505	398241.9	0.4609375
3.37	-38.62505	394291.8	0.484375
3.399	11.47931	389942.1	0.484375
3.458	11.47931	385225.2	0.484375
3.809	5.622536	380193.8	0.46875
4.073	5.933975	374916.2	0.4609375
4.073	5.933975	369461.4	0.453125
4.161	26.76068	363881.4	0.46875
4.161	26.76068	358201.1	0.4765625
4.19	8.139211	352426.4	0.4765625
4.19	2.830187	346563	0.4609375
4.19	-5.02952	340621.6	0.4453125
4.19	-19.22313	334608.1	0.453125
4.19	-19.22313	328518.2	0.4609375
4.161	-12.51225	322343.8	0.4609375
4.161	-12.51225	316078	0.453125
4.219	4.235056	309717.1	0.4453125
4.219	-10.26439	303262.7	0.4375
4.219	1.543641	296727.8	0.4140625
4.219	-21.68074	290142.5	0.4296875
4.19	-21.68074	283554.9	0.4453125
4.219	-17.00292	277026.8	0.4453125
4.19	13.50393	270622.5	0.4453125
4.19	13.50393	264397.1	0.4453125
4.19	-3.412513	258390.6	0.4375
4.19	6.926141	252626.5	0.4296875
4.161	6.116704	247106.9	0.4140625
4.161	-14.51179	241815.3	0.421875
4.161	-14.51179	236731.1	0.421875
4.161	-4.191281	231837	0.40625
4.161	-4.191281	227112.9	0.3984375
4.131	-8.622838	222533.4	0.390625
4.131	-14.70791	218073.5	0.3984375
4.131	-14.70791	213710.2	0.3984375
4.102	6.465836	209423	0.390625
4.102	6.465836	205194.3	0.3828125
4.102	-4.97837	201014	0.375
4.102	13.43117	196880.7	0.3828125
4.102	13.43117	192795.4	0.3828125
4.073	8.679581	188757.3	0.3828125
4.073	8.679581	184769.8	0.375
4.073	-2.422029	180843.9	0.3671875
4.073	-2.422029	176989	0.359375
4.073	-0.3868195	173205.7	0.34375
4.043	5.568031	169489.6	0.34375
4.043	-39.13866	165841.5	0.3671875
4.043	20.61812	162275.4	0.375
4.043	20.61812	158831	0.3828125
4.014	-3.114519	155584	0.375
4.014	-15.16271	152635.4	0.375
4.014	-15.16271	150078.5	0.3828125
4.014	5.127296	147966.4	0.375
4.014	-7.236541	146301.1	0.375
4.014	-3.033368	145049.5	0.3671875
3.985	-3.550355	144179.7	0.359375
4.014	-3.550355	143679.6	0.359375
3.985	-22.05203	143546.1	0.3671875
3.985	-22.05203	143769.5	0.375
3.985	-3.656209	144326.9	0.3671875
3.956	2.240063	145182.4	0.359375
3.956	2.240063	146287.3	0.3515625
3.956	10.15026	147586.9	0.3515625
3.956	10.15026	149028.4	0.3515625
3.956	3.615056	150563.6	0.34375
3.956	10.73177	152144.8	0.34375
3.956	-11.37834	153727.4	0.34375
3.897	-6.31574	155276.8	0.34375
3.897	-6.31574	156775.9	0.34375
3.897	-5.017807	158226.3	0.3359375
3.897	9.441175	159639.3	0.3359375
3.897	9.441175	161022	0.3359375
3.868	-6.231439	162366.1	0.3359375
3.868	-7.786663	163647.9	0.3359375
3.868	36.53418	164839.6	0.3515625
3.868	36.53418	165921.5	0.3671875
3.868	-4.91504	166889.1	0.359375
3.868	-4.911012	167750.3	0.359375
3.868	-4.911012	168510.5	0.3515625
3.868	8.481531	169164.8	0.3515625
3.868	1.114446	169711.4	0.34375
3.838	-0.7704602	170164.2	0.34375
3.838	2.478116	170548.3	0.3359375
3.838	2.478116	170886.1	0.328125
3.838	3.128927	171187.2	0.328125
3.838	3.128927	171443.8	0.3203125
3.838	28.02909	171636.7	0.3359375
3.809	0.5014634	171750.1	0.328125
3.809	0.5014634	171786.3	0.3203125
3.809	6.504647	171770.7	0.3203125
3.809	6.504647	171744.3	0.3203125
3.809	2.172931	171745.9	0.3125
3.809	-22.56333	171795.9	0.3203125
3.809	10.76156	171891.4	0.3203125
3.809	22.17116	172020.5	0.328125
3.809	22.17116	172187.5	0.3359375
3.809	-10.03632	172419.2	0.3359375
3.78	0.8301543	172751.3	0.328125
3.78	0.8301543	173216.1	0.3203125
3.78	11.72282	173838.8	0.3203125
3.78	1.505412	174635.6	0.3203125
3.78	-1.903691	175611.4	0.3125
3.78	-2.97301	176759.4	0.3125
3.78	-2.97301	178060.7	0.3046875
3.78	15.76088	179483.6	0.3046875
3.78	15.76088	180986.3	0.3125
3.75	-5.433892	182526	0.3125
3.78	10.38603	184067.5	0.3125
3.75	3.269392	185580.1	0.3046875
3.75	23.01482	187038.8	0.3125
3.75	23.01482	188435.5	0.3203125
3.75	7.905136	189784.8	0.3203125
3.721	7.905136	191111	0.3203125
3.75	-2.223419	192427.9	0.3125
3.75	-2.997804	193726.8	0.3125
3.75	-2.997804	194983.5	0.3046875
3.721	22.57998	196177.9	0.3125
3.721	22.57998	197303	0.3203125
3.721	6.762588	198362.6	0.3125
3.721	-2.562744	199363.2	0.3125
3.721	-37.96897	200303.5	0.3203125
3.721	14.92988	201171.2	0.328125
3.721	14.92988	201961.3	0.328125
3.721	-6.823713	202702.5	0.328125
3.721	19.92703	203456.5	0.328125
3.721	19.92703	204282.8	0.3359375
3.721	0.3653533	205202.7	0.328125
3.692	0.3653533	206196.4	0.328125
3.692	-6.426016	207231.4	0.328125
3.692	15.39297	208279	0.328125
3.692	15.39297	209309.1	0.328125
3.692	3.138906	210295.3	0.328125
3.692	3.138906	211225.1	0.3203125
3.692	35.97698	212095.6	0.3359375
3.692	4.138514	212904.3	0.328125
3.692	4.138514	213652.1	0.328125
3.692	29.83674	214353.4	0.3359375
3.692	29.83674	215033.4	0.34375
3.692	-1.946516	215711.9	0.34375
3.663	-1.946516	216388.3	0.3359375
3.663	13.87865	217045.5	0.3359375
3.663	7.302202	217658.3	0.3359375
3.663	7.302202	218199	0.3359375
3.633	2.054329	218639.4	0.3359375
3.663	2.054329	218958.6	0.328125
3.663	2.963051	219146.1	0.328125
3.633	-9.217622	219197	0.328125
3.663	-9.217622	219103.3	0.328125
3.663	-10.86505	218851.1	0.328125
3.663	7.766477	218428.3	0.3203125
3.633	1.825307	217834.6	0.3203125
3.633	9.597676	217083	0.3203125
3.633	9.597676	216197.3	0.3203125
3.633	-8.774121	215205.4	0.3203125
3.633	-15.10031	214129.1	0.3203125
3.633	3.018757	212974.7	0.3203125
3.633	10.5507	211731.5	0.3203125
3.633	10.5507	210380.8	0.3203125
3.633	13.01624	208905.2	0.3203125
3.633	13.01624	207291.2	0.3203125
3.633	11.07949	205528.2	0.3203125
3.633	11.07949	203607	0.3203125
3.633	1.379228	201520.5	0.3203125
3.604	-13.89991	199264.7	0.3203125
3.604	-13.89991	196839.2	0.3203125
3.604	-23.63378	194246.2	0.328125
3.633	-23.63378	191492	0.3359375
3.604	-16.84944	188590.4	0.3359375
3.633	-4.674767	185561.5	0.3359375
3.604	-33.65606	182427.4	0.34375
3.604	-5.017679	179213.2	0.3359375
3.604	-5.017679	175955.5	0.3359375
3.604	19.06546	172709.9	0.34375
3.604	-5.011181	169550.6	0.3359375
3.604	9.347727	166560.2	0.3359375
3.604	-5.332358	163821.7	0.3359375
3.604	-15.04541	161410.5	0.3359375
3.604	-5.208581	159384.6	0.3359375
3.604	-5.687948	157772	0.3359375
3.604	-5.687948	156562	0.3359375
3.604	23.7053	155711.2	0.3359375
3.575	23.7053	155163.4	0.34375
3.604	-6.172311	154864.5	0.34375
3.604	7.17333	154764.3	0.3359375
3.575	7.17333	154817.3	0.3359375
3.604	-7.704691	154988.5	0.3359375
3.575	-7.704691	155256.9	0.3359375
3.575	24.37588	155608.8	0.34375
3.575	-21.00995	156030.3	0.34375
3.575	12.01183	156515.7	0.34375
3.575	-6.951132	157085.8	0.34375
3.575	-6.951132	157799.6	0.34375
3.575	4.568536	158743.7	0.34375
3.575	-7.027826	160002.1	0.34375
3.575	-7.027826	161621.8	0.3359375
3.575	-2.854983	163594.6	0.3359375
3.575	-5.533906	165868.9	0.3359375
3.575	-2.311187	168384	0.328125
3.575	-2.311187	171088.1	0.328125
3.575	13.73505	173930.5	0.328125
3.545	11.45431	176855.5	0.328125
3.545	11.45431	179811.8	0.328125
3.545	4.481266	182764.1	0.328125
3.545	-1.520728	185690	0.328125
3.545	17.15141	188570.3	0.328125
3.545	4.688354	191379.4	0.328125
3.545	4.688354	194086.6	0.328125
3.545	-8.957784	196671.1	0.328125
3.545	-8.957784	199132.4	0.328125
3.545	-12.69016	201483.5	0.328125
3.545	-7.263362	203738.4	0.328125
3.545	-7.263362	205903.2	0.3203125
3.545	-31.46872	207971.4	0.328125
3.545	-31.46872	209923.8	0.3359375
3.545	-8.228126	211734.7	0.3359375
3.545	-6.795116	213382.6	0.3359375
3.545	5.28357	214850.2	0.3359375
3.545	-26.18596	216119.6	0.3359375
3.516	-26.18596	217182.1	0.34375
3.516	-5.906449	218052.8	0.34375
3.516	-7.20341	218765.6	0.34375
3.516	-7.20341	219351.3	0.34375
3.516	0.006969432	219819.1	0.3359375
3.516	5.473264	220155.7	0.3359375
3.516	-15.94793	220341.4	0.3359375
3.516	-15.94793	220365.9	0.3359375
3.516	25.17732	220229.8	0.34375
3.516	-1.870605	219936.3	0.34375
3.516	-1.870605	219484.5	0.3359375
3.516	-12.69381	218886.9	0.3359375
3.516	-1.077432	218185.5	0.3359375
3.516	-7.641256	217443.7	0.3359375
3.516	57.77779	216725.7	0.3515625
3.516	57.77779	216090.2	0.359375
3.516	0.2001768	215593.3	0.359375
3.516	0.2001768	215283.2	0.359375
3.516	-10.88004	215177.8	0.359375
3.487	1.159051	215256.3	0.3515625
3.487	1.159051	215492.4	0.3515625
3.487	41.60633	215886.8	0.359375
3.487	41.60633	216461.8	0.3671875
3.487	7.979751	217245.1	0.3671875
3.487	-7.104141	218253.9	0.3671875
3.487	2.314736	219480.1	0.359375
3.487	-3.298093	220883.7	0.359375
3.487	-3.298093	222403.6	0.359375
3.487	3.089214	223973.9	0.359375
3.487	-2.236475	225534.7	0.3515625
3.487	-2.236475	227033.7	0.3515625
3.487	-0.586951	228425.9	0.34375
3.487	14.89803	229674.2	0.3515625
3.487	0.1046238	230752	0.34375
3.487	-0.7823064	231645.1	0.34375
3.487	-0.7823064	232352.9	0.3359375
3.487	-1.778165	232885	0.3359375
3.487	-1.778165	233252.4	0.3359375
3.487	7.207735	233459	0.3359375
3.487	18.67185	233498.7	0.3359375
3.487	-6.331459	233357.6	0.3359375
3.487	28.64391	233023.1	0.3359375
3.487	28.64391	232500.5	0.34375
3.458	-11.26482	231823.5	0.34375
3.487	-11.26482	231043.3	0.34375
3.458	-0.1969828	230200.3	0.34375
3.487	-1.719935	229305	0.3359375
3.458	-1.719935	228345.8	0.3359375
3.458	46.26456	227310.7	0.34375
3.458	46.26456	226197.9	0.359375
3.458	-5.938493	225019.7	0.3515625
3.458	-5.949965	223795.5	0.3515625
3.458	-5.633425	222536.1	0.3515625
3.458	5.455139	221240.1	0.3515625
3.458	5.455139	219911.8	0.3515625
3.458	-9.115503	218570.5	0.3515625
3.458	-2.224061	217237.9	0.34375
3.458	-2.224061	215920	0.34375
3.458	1.646517	214603.3	0.34375
3.458	-3.960775	213272.3	0.3359375
3.458	-21.92916	211923	0.34375
3.458	19.90234	210556.5	0.34375
3.458	19.90234	209168.6	0.34375
3.458	-6.28028	207760.5	0.34375
3.458	-6.28028	206352.3	0.34375
3.458	8.434024	204972.8	0.34375
3.458	-18.49547	203638.4	0.34375
3.428	-18.49547	202348.7	0.3515625
3.428	-1.131754	201097.1	0.34375
3.428	-1.131754	199878.8	0.34375
3.458	-7.716036	198687.8	0.34375
3.428	-7.716036	197508.9	0.34375
3.428	-3.978373	196318.6	0.3359375
3.428	7.244644	195091.4	0.3359375
3.428	7.244644	193804.7	0.3359375
3.458	6.785768	192440.1	0.3359375
3.428	6.785768	190984.7	0.3359375
3.428	-28.55124	189430.9	0.34375
3.428	-4.902369	187774.6	0.3359375
3.428	-4.608879	186023.3	0.3359375
3.428	-21.78953	184208.3	0.34375
3.428	-21.78953	182380.7	0.34375
3.428	-24.23312	180588.8	0.3515625
3.428	1.34751	178856.5	0.34375
3.428	1.34751	177181.2	0.34375
3.458	3.726739	175558.8	0.34375
3.428	-6.100914	174003.7	0.3359375
3.428	-14.12372	172542.5	0.34375
3.428	-26.61542	171198.9	0.34375
3.428	-26.61542	169983.3	0.3515625
3.428	9.424747	168890	0.3515625
3.428	9.424747	167900.3	0.3515625
3.399	20.25258	166996.1	0.3515625
3.428	-3.480475	166175.6	0.3515625
3.428	-0.2492865	165458.3	0.34375
3.399	-27.54837	164878.7	0.3515625
3.428	-27.54837	164477.1	0.359375
3.399	-16.63764	164292.3	0.359375
3.399	-27.65193	164351.3	0.359375
3.399	-27.65193	164657.1	0.3671875
3.399	-16.8252	165183.7	0.3671875
3.399	-16.8252	165888.6	0.3671875
3.399	-7.16456	166729.3	0.3671875
3.428	-7.16456	167665.7	0.3671875
3.399	22.64651	168657.5	0.375
3.428	0.4828289	169673.8	0.3671875
3.428	7.364578	170707.6	0.3671875
3.428	-8.600116	171779.7	0.3671875
3.428	-8.600116	172930.5	0.3671875
3.428	2.107402	174205.2	0.359375
3.399	9.174298	175635.3	0.359375
3.428	9.174298	177226	0.359375
3.428	-31.50101	178952.4	0.3671875
3.428	-8.847926	180774.1	0.3671875
3.428	8.19866	182663.5	0.3671875
3.428	6.787206	184622.7	0.3671875
3.399	6.787206	186671.3	0.3671875
3.399	-0.7650676	188820.5	0.359375
3.399	-0.7650676	191055.7	0.359375
3.399	-3.05968	193337.7	0.359375
3.399	1.255551	195622.4	0.3515625
3.399	1.255551	197876.7	0.3515625
3.399	-6.768149	200076.6	0.3515625
3.399	-6.768149	202198.6	0.3515625
3.399	-1.091688	204213.1	0.34375
3.399	8.364867	206086.3	0.34375
3.399	-2.706114	207787.1	0.34375
3.399	22.72419	209295.1	0.34375
3.399	22.72419	210604.5	0.3515625
3.399	28.47876	211726.9	0.3515625
3.37	28.47876	212688.3	0.359375
3.399	4.243917	213518.1	0.359375
3.399	2.366638	214234.5	0.3515625
3.399	2.366638	214836.1	0.3515625
3.399	-4.702922	215310.5	0.3515625
3.399	-4.702922	215649.4	0.34375
3.399	-6.379884	215849.7	0.34375
3.399	-2.310582	215903.5	0.34375
3.399	-2.310582	215796	0.34375
3.37	4.824251	215512.5	0.3359375
3.399	-6.721441	215047	0.3359375
3.399	6.921358	214403.4	0.3359375
3.37	6.128781	213594.8	0.3359375
3.37	6.128781	212643	0.3359375
3.37	3.209308	211574.3	0.3359375
3.37	3.209308	210411.9	0.328125
3.37	0.7835314	209169.7	0.328125
3.37	-2.702068	207850.1	0.3203125
3.37	-15.84764	206445.5	0.328125
3.37	-3.332108	204943.5	0.3203125
3.37	-3.332108	203334.2	0.3203125
3.37	-7.031169	201617.5	0.3203125
3.37	0.8098798	199802.6	0.3125
3.37	6.94023	197901.5	0.3125
3.37	-3.060727	195919.7	0.3125
3.37	-4.119493	193854.2	0.3125
3.37	3.332362	191698.7	0.3046875
3.37	-4.416197	189446.9	0.3046875
3.37	-4.416197	187093.9	0.3046875
3.37	9.217181	184637.7	0.3046875
3.37	9.217181	182080.5	0.3046875
3.37	-5.361277	179425	0.296875
3.37	-2.517342	176670.9	0.2890625
3.37	-2.517342	173817.4	0.1953125
3.34	11.5785	170868.8	0.2890625
3.252	11.5785	167837.5	0.2890625
3.018	19.54222	164744.7	0.296875
2.959	19.54222	161617.4	0.3046875
2.93	82.17099	158486.1	0.328125
2.872	-0.413527	155389.5	0.328125
2.901	-0.413527	152393	0.328125
2.901	-2.52017	149607.7	0.3203125
2.901	-2.52017	147182.2	0.3203125
2.901	14.91912	145264.2	0.3203125
2.901	-12.73223	143953.2	0.3203125
2.901	-5.828207	143273	0.3203125
2.901	7.67763	143187.8	0.3203125
2.901	7.67763	143653.1	0.3203125
2.901	-18.33508	144645.4	0.3203125
2.901	-4.419782	146146.2	0.3203125
2.901	-4.419782	148126.2	0.3203125
2.93	5.946591	150546.5	0.3125
2.901	-0.1510019	153363	0.3125
2.901	1.418139	156528.5	0.3046875
2.901	30.13325	159992.7	0.3125
2.901	30.13325	163697.7	0.3203125
2.93	6.14699	167575.8	0.3203125
2.901	6.14699	171559.5	0.3203125
2.93	20.73299	175588.6	0.3203125
2.901	-12.32196	179607	0.328125
2.901	-12.32196	183563.4	0.328125
2.901	7.244483	187421.7	0.328125
2.901	7.244483	191164.1	0.3203125
2.901	0.6802268	194779.1	0.3203125
2.901	0.6802268	198247.9	0.3203125
2.901	0.9602861	201539.6	0.3125
2.93	-0.774994	204617.5	0.3125
2.901	-0.774994	207448.2	0.3046875
2.93	1.149261	210004.1	0.3046875
2.901	1.149261	212262.5	0.296875
2.901	0.285422	214203.6	0.296875
2.901	-4.496563	215809.9	0.2890625
2.901	1.125535	217068.5	0.2890625
2.901	2.374025	217973.1	0.28125
2.901	2.374025	218524.7	0.2734375
2.901	-0.6214167	218729.9	0.265625
2.901	2.467873	218598.1	0.2578125
2.901	2.467873	218139.2	0.0234375
2.784	0.7792721	217363.2	0.015625
2.637	0.5968745	216280	0.015625
1.788	-0.8867803	214897.9	0.015625
0.557	0.1077748	213223.8	0.015625
0.411	0.1077748	211264.6	0.015625
0.176	-0.2978793	209029.3	0.015625
0.118	-0.2978793	206529.8	0.015625
0.03	-0.3024918	203778.9	0.015625
0	0.08579837	200789.4	0.015625
0	0.08579837	197573	0.015625
0	-0.1608989	194141.7	0.015625
0	-0.1608989	190508.1	0.015625
0	0.1150582	186685.7	0.015625
0	-1.169709	182688.5	0.015625
0	0.8975738	178530.9	0.015625
0	0.9791263	174228	0.015625
0	0.9791263	169796.2	0.015625
0	-0.1897205	165253	0.015625
0	-0.1897205	160616.6	0.015625
0	0.2418883	155904.2	0.015625
0	-0.3874606	151132.1	0.015625
0	0.06687165	146314.6	0.015625
0	-0.3352005	141464.5	0.015625
0	-0.3352005	136594	0.015625
0	-0.4059843	131715.8	0.015625
0	0.5628403	126842.6	0.015625
0	0.5628403	121986.8	0.015625
0	0.1624387	117159.8	0.015625
0	-0.09649038	112372.1	0.015625
0	-1.449644	107633.1	0.015625
0	-0.8481863	102951.1	0.015625
0	-0.8481863	98333.92	0.015625
0	0.6454697	93789.77	0.015625
0	0.6454697	89327.24	0.015625
0	0.3126855	84955.02	0.015625
0	-0.0342438	80681.23	0.015625
0	-0.0342438	76512.79	0.015625
0	0.7562739	72454.95	0.015625
0	0.7562739	68511.3	0.015625
0	0.1539527	64684.3	0.015625
0	0.3154728	60975.98	0.015625
0	-0.3478001	57388.07	0.015625
0	0.2466807	53921.8	0.015625
0	0.2466807	50578.16	0.015625
0	-0.661623	47358.41	0.015625
0	0.5223069	44263.91	0.015625
0	0.5223069	41295.34	0.015625
0	-0.01078225	38452.5	0.015625
0	0.2245328	35735.05	0.015625
0	0.3348823	33142.82	0.015625
0	0.3348823	30675.11	0.015625
0	-0.9327401	28330.29	0.015625
0	-0.3935169	26106.06	0.015625
0	-0.3935169	24000.39	0.015625
0	1.054061	22011.96	0.015625
0	0.1399075	20140.1	0.015625
0	-0.2535128	18384.45	0.015625
0	0.1867838	16744.59	0.015625
0	0.1867838	15219.52	0.015625
0	-0.3747653	13806.94	0.015625
0	-0.3747653	12502.98	0.015625
0	-0.335824	11302.63	0.015625
0	-0.4881198	10200.41	0.015625
0	-0.4881198	9190.883	0.015625
0	0.4274464	8268.754	0.015625
0	0.4274464	7428.946	0.015625
0	-0.06261902	6666.761	0.015625
0	0.7798902	5977.981	0.015625
0	-0.2195835	5358.582	0.015625
0	-0.242383	4804.643	0.015625
0	-0.242383	4312.871	0.015625
0	0.4477148	3880.939	0.015625
0	-0.6684875	3507.077	0.015625
0	-0.6684875	3189.577	0.015625
0	-0.5501037	2926.623	0.015625
0	-0.6540017	2716.167	0.015625
0	0.5345865	2555.613	0.015625
0	0.5345865	2441.508	0.015625
0	-0.1113776	2369.844	0.015625
0	-0.2878306	2336.851	0.015625
0	-0.2878306	2339.274	0.015625
0	-0.5541719	2373.903	0.015625
0	0.9401844	2437.241	0.015625
0	0.08531372	2525.776	0.015625
0	0.7264569	2636.635	0.015625
0	0.7264569	2768.124	0.015625
0	-0.1269212	2919.643	0.015625
0	-0.1269212	3090.898	0.015625
0	0.7036065	3280.887	0.015625
0	0.6180976	3487.358	0.015625
0	0.6180976	3707.077	0.015625
0	0.7078779	3936.489	0.015625
0	0.7078779	4172.204	0.015625
0	-0.1799262	4411.179	0.015625
0	-0.4941274	4650.782	0.015625
0	-0.02224519	4888.859	0.015625
0	-0.2345058	5123.635	0.015625
0	-0.2345058	5353.424	0.015625
0	-0.526723	5576.542	0.015625
0	-0.003701116	5791.621	0.015625
0	-0.003701116	5997.873	0.015625
0	0.4389144	6195.038	0.015625
0	0.4519227	6383.174	0.015625
0	-1.322369	6562.393	0.015625
0	-0.2189752	6732.533	0.015625
0	-0.2189752	6893.294	0.015625
-0.029	-1.050143	7045.106	0.015625
0	-1.050143	7189.498	0.015625
0	0.5039028	7328.224	0.015625
0	0.1881531	7462.343	0.015625
0	0.01453719	7592.157	0.015625
0	0.9300283	7717.619	0.015625
0	0.9300283	7838.433	0.015625
0	0.3688776	7953.833	0.015625
0	0.3688776	8062.665	0.015625
0	-0.1779325	8163.755	0.015625
0	0.6322418	8256.086	0.015625
0	0.6322418	8338.95	0.015625
0	-0.4221083	8412.274	0.015625
0	-0.4221083	8476.559	0.015625
0	0.3780302	8532.231	0.015625
0	0.3754761	8579.128	0.015625
0	0.3754761	8616.572	0.015625
0	0.6018684	8643.803	0.015625
0	0.7911704	8660.237	0.015625
0	-0.4607985	8665.523	0.015625
0	-0.792963	8659.617	0.015625
0	-0.792963	8642.964	0.015625
0	0.4743058	8616.538	0.015625
0	-0.3791411	8581.703	0.015625
0	-0.1205957	8540.183	0.015625
0.03	1.10002	8494.097	0.015625
0	1.10002	8445.633	0.015625
0	0.02962266	8396.329	0.015625
0	0.02962266	8346.6	0.015625
0	-0.3254541	8295.975	0.015625
0	-0.01925037	8243.76	0.015625
0	-0.01925037	8189.54	0.015625
0	0.2109811	8133.336	0.015625
0	0.2109811	8075.486	0.015625
0	-0.9882804	8016.364	0.015625
0	-0.9882804	7956.043	0.015625
0	1.239078	7894.211	0.015625
0	0.5131509	7830.429	0.015625
-0.029	0.2929853	7764.472	0.015625
0	0.05716005	7696.842	0.015625
0	0.05716005	7629.063	0.015625
0	-1.553196	7563.185	0.015625
0	0.9083695	7501.184	0.015625
0	0.5248438	7445.09	0.015625
0	0.1113286	7397.527	0.015625
0	-0.9558008	7361.783	0.015625
0	-0.413799	7341.11	0.015625
-0.029	-0.2185901	7337.891	0.015625
0	-0.2185901	7353.208	0.015625
0	0.5706786	7386.717	0.015625
-0.029	0.5706786	7436.665	0.015625
0	-0.5529187	7500.316	0.015625
0	-0.5595313	7574.81	0.015625
0	-0.5595313	7657.517	0.015625
0	0.4323969	7745.896	0.015625
0	0.4323969	7837.795	0.015625
0	-0.9458526	7931.861	0.015625
0	-0.06635898	8027.23	0.015625
0	-0.06635898	8122.878	0.015625
0	0.04884151	8217.725	0.015625
0	0.04884151	8311.341	0.015625
0	0.3578062	8404.053	0.015625
0	0.01332005	8496.309	0.015625
0	0.01332005	8588.143	0.015625
0	0.1257719	8679.044	0.015625
0	0.5846452	8768.039	0.015625
0	0.2246613	8853.858	0.015625
0	0.2246613	8935.179	0.015625
0	-0.4886439	9010.899	0.015625
0	1.373919	9080.377	0.015625
0	1.373919	9143.688	0.015625
0	-0.3196726	9201.821	0.015625
0	0.09831256	9256.313	0.015625
0	-0.5089648	9308.124	0.015625
0	-0.6817957	9357.054	0.015625
0	-0.6817957	9402.685	0.015625
0	-0.06284452	9445.412	0.015625
0	-0.197064	9486.16	0.015625
0	1.218007	9525.702	0.015625
0	1.090493	9564.516	0.015625
0	1.090493	9602.994	0.015625
0	-0.332631	9641.648	0.015625
0	-0.332631	9681.117	0.015625
0	-1.773272	9722.143	0.015625
0	0.122308	9765.676	0.015625
0	1.217466	9813.082	0.015625
0	0.1152004	9866.139	0.015625
0	0.1152004	9926.362	0.015625
0.03	-0.4921422	9993.886	0.015625
0	-0.3171809	10067.21	0.015625
0.03	-0.3171809	10144.55	0.015625
0	0.1617908	10225.01	0.015625
0	-0.2501923	10308.4	0.015625
0	-0.1633168	10394.51	0.015625
0	-0.1633168	10482.77	0.015625
0	-0.01964818	10572.23	0.015625
0	0.01420631	10661.5	0.015625
0	0.01420631	10748.85	0.015625
0	-0.03444562	10832.34	0.015625
0	0.5083541	10909.96	0.015625
0	1.041024	10979.85	0.015625
0	-0.5208302	11040.37	0.015625
0	-0.5208302	11090.28	0.015625
0	-0.06091134	11129.02	0.015625
0	-0.06091134	11156.94	0.015625
0.03	0.8553959	11174.87	0.015625
0	0.5862207	11183.3	0.015625
0	0.5862207	11182.03	0.015625
0	0.01077227	11170.98	0.015625
0	0.01077227	11150.83	0.015625
0	0.1050083	11122.82	0.015625
0	-0.06912469	11088.14	0.015625
0	0.3097377	11047.47	0.015625
0	1.614629	11000.75	0.015625
0	1.614629	10947.3	0.015625
0	0.09131885	10886.27	0.015625
0	-0.7489248	10816.99	0.015625
0	-0.7489248	10738.93	0.015625
0	-0.09792729	10651.79	0.015625
0	0.13457	10555.53	0.015625
0	-0.3283879	10450.35	0.015625
0	-0.01485883	10336.52	0.015625
0	-0.01485883	10214.27	0.015625
0	-0.561949	10083.89	0.015625
0	-0.561949	9945.906	0.015625
0	0.2858217	9800.941	0.015625
0	0.3923668	9649.443	0.015625
0	0.290757	9491.776	0.015625
0	1.071089	9328.373	0.015625
0	1.071089	9159.685	0.015625
0	-0.002789256	8986.115	0.015625
0	-0.002789256	8808.097	0.015625
0	-0.5448444	8626.112	0.015625
0	-0.3839372	8440.79	0.015625
0	-0.3839372	8253.182	0.015625
0	-0.9235989	8064.799	0.015625
0	-0.9235989	7877.175	0.015625
0	0.649114	7691.361	0.015625
0	0.4689897	7507.846	0.015625
0	-2.207909	7326.93	0.015625
0	0.8241134	7149.009	0.015625
0	0.8241134	6974.935	0.015625
0	1.269257	6807.09	0.015625
0	0.1090798	6650.02	0.015625
0	0.1090798	6509.466	0.015625
0	-0.1210174	6390.738	0.015625
0	-0.0315089	6297.515	0.015625
0	-0.1926838	6231.274	0.015625
0	0.02148048	6191.342	0.015625
0	0.02148048	6175.418	0.015625
0	-0.3007023	6180.292	0.015625
0	-0.3007023	6202.507	0.015625
0	0.7013209	6238.794	0.015625
0	0.1624552	6286.232	0.015625
0	0.1624552	6342.388	0.015625
0	0.4767464	6405.585	0.015625
0	0.4767464	6474.868	0.015625
0	-0.9220258	6549.533	0.015625
0	-0.9220258	6628.761	0.015625
0	-0.689069	6711.686	0.015625
0	1.22545	6797.616	0.015625
0	1.22545	6886.177	0.015625
0	-0.03448957	6977.39	0.015625
0	-0.03448957	7071.49	0.015625
0	-0.6129893	7168.283	0.015625
0	-0.1075942	7266.745	0.015625
0	0.3117338	7365.647	0.015625
0	2.760446	7464.458	0.015625
0	2.760446	7563.552	0.015625
0	0.9026654	7663.968	0.015625
0	-1.179406	7766.933	0.015625
0	-1.179406	7873.16	0.015625
0	0.3264924	7982.449	0.015625
0	-0.6467651	8093.698	0.015625
0	0.09779546	8205.306	0.015625
0	-0.2173541	8316.239	0.015625
0	-0.2173541	8426.903	0.015625
0	0.5239257	8538.738	0.015625
0	0.5239257	8653.065	0.015625
0	-5.348495	8770.218	0.015625
0	-1.208403	8889.964	0.015625
0	-1.208403	9013.502	0.015625
0	0.4244613	9145.42	0.015625
0	0.4244613	9293.539	0.015625
0	0.4553597	9466.591	0.015625
0	-0.01681616	9671.385	0.015625
0	0.5412007	9910.933	0.015625
0	-0.937376	10184.14	0.015625
0	-0.937376	10486.86	0.015625
0	-0.3016946	10813.61	0.015625
0	-0.3016946	11158.71	0.015625
0	0.02884565	11516.68	0.015625
0	0.8048266	11882.04	0.015625
0	-1.003751	12249.35	0.015625
0	0.32714	12613.7	0.015625
0	0.32714	12971.6	0.015625
0	0.6389058	13321.57	0.015625
0	-9.690429	13663.95	0.015625
0	-9.690429	14001.2	0.0234375
0	0.4104341	14338.6	0.0234375
0	-0.3362394	14682.96	0.015625
0	0.660498	15038.52	0.015625
0	-0.6992954	15405.16	0.015625
0	-0.6992954	15782.72	0.015625
0	0.3429821	16174.47	0.015625
0	0.3429821	16584.91	0.015625
0	-0.5632051	17016	0.015625
0	0.9764717	17465.52	0.015625
0	0.9764717	17927.75	0.015625
0	-0.397617	18395.43	0.015625
0	-0.397617	18861.35	0.015625
0	-0.3557416	19318.92	0.015625
0	-0.2396188	19762.36	0.015625
0	0.3138787	20186.79	0.015625
0	0.03561482	20588.11	0.015625
0	0.03561482	20962.67	0.015625
0	-0.08833531	21307.21	0.015625
0	1.124376	21619.25	0.015625
0	1.124376	21897.23	0.015625
0	-0.3352561	22140.51	0.015625
0	0.1679591	22348.86	0.015625
0	0.6950975	22521.94	0.015625
0	0.6950975	22659.24	0.015625
0	-0.05027441	22760.63	0.015625
0	-0.5882354	22826.62	0.015625
0	-0.5882354	22858	0.015625
0	0.6006457	22855.47	0.015625
0	-0.8320284	22819.57	0.015625
0	0.1182669	22751.16	0.015625
0	-0.7957055	22652.13	0.015625
0	-0.7957055	22525.76	0.015625
0	-0.09489556	22376.4	0.015625
0	-0.09489556	22208.43	0.015625
0	0.2091617	22025.11	0.015625
0	-0.1512419	21827.85	0.015625
0	0.1516616	21616.79	0.015625
0	-0.1127315	21392.04	0.015625
0	-0.1127315	21154.52	0.015625
0	0.4494462	20905.58	0.015625
0	0.4194988	20646.36	0.015625
0	0.4194988	20377.3	0.015625
0	0.2321306	20098.2	0.015625
0	0.2321306	19808.89	0.015625
0	0.2988592	19509.64	0.015625
0	-0.1292924	19200.92	0.015625
0	-0.1292924	18883.06	0.015625
0	-0.506436	18556.16	0.015625
0	0.02231343	18220.43	0.015625
0	0.3053732	17876.65	0.015625
0	0.3053732	17526.07	0.015625
0	0.839698	17170.09	0.015625
0	-0.5582063	16809.75	0.015625
0	-0.5582063	16445.7	0.015625
0	-0.3128844	16078.94	0.015625
0	-0.1927214	15711.36	0.015625
0	0.1591433	15345.28	0.015625
0	0.3195423	14982.57	0.015625
0	0.3195423	14624.11	0.015625
0	-0.1451022	14269.89	0.015625
0	-0.1451022	13919.64	0.015625
0	-1.542252	13573.42	0.015625
0	0.5297463	13231.85	0.015625
0	0.5297463	12896.42	0.015625
0	-0.7859098	12569.71	0.015625
0	-0.7859098	12254.96	0.015625
0	0.5929663	11954.87	0.015625
0	-0.3517019	11670.72	0.015625
0	0.1535167	11402.49	0.015625
0	0.8224906	11149.77	0.015625
0	0.8224906	10912.37	0.015625
0.03	0.4164834	10690.19	0.015625
0	0.1200029	10482.79	0.015625
0	0.1200029	10289.12	0.015625
0	-0.1185996	10107.64	0.015625
0	-0.1185996	9936.598	0.015625
0	-0.9105958	9774.456	0.015625
0	0.5654845	9620.185	0.015625
0	0.5654845	9473.438	0.015625
0	0.1016708	9334.716	0.015625
0	0.1016708	9205.135	0.015625
0	0.03989952	9085.724	0.015625
0	0.03989952	8976.686	0.015625
0	-0.1615272	8877.168	0.015625
-0.029	0.1559099	8785.686	0.015625
0	0.1559099	8700.853	0.015625
0	-0.1185237	8621.727	0.015625
0	-0.1185237	8547.614	0.015625
0.03	-0.04719813	8477.704	0.015625
0	-0.2645689	8410.884	0.015625
0	1.172766	8345.846	0.015625
