-1.92092 -1.95486 -1.99559 -2.02953 -2.17207 -2.17207 -2.0974 -1.86662 -1.92771 -1.78517 -1.80553 -1.99559 -2.15849 -2.0431 -2.08383 -2.14492 -2.0974 -1.79196 -1.84626 -1.87341 -1.70372 -1.80553 -2.30782 -2.01595 -2.09062 -2.13134 -1.88699 -1.84626 -1.8259 -1.90056 -1.84626 -1.83947 -1.9888 -2.31461 -2.02953 -2.15171 -1.97523 -1.81232 -1.80553 -1.79875 -1.9345 -1.9345 -1.9888 -2.06347 -2.21958 -2.11777 -1.94129 -1.94129 -1.96844 -1.80553 -1.78517 -1.99559 -2.0431 -2.01595 -2.11777 -2.2128 -1.85983 -1.85305 -2.12456 -1.83947 -1.81911 -2.01595 -1.94807 -2.12456 -2.11098 -2.30104 -1.95486 -1.79875 -1.84626 -2.16528 -1.77159 -1.95486 -2.0431 -2.00238 -2.17886 -2.19922 -2.02274 -1.91414 -1.83268 -1.87341 -1.98201 -1.99559 -2.02274 -2.15171 -2.28067 -2.21958 -1.85983 -1.88699 -1.85983 -1.79196 -1.85305 -2.10419 -2.0431 -2.10419 -2.38928 -2.25352 -1.87341 -1.8802 -1.71729 -1.83268 -1.77159 -2.07025 -2.10419 -2.00238 -2.11777 -2.49109 -1.81911 -1.83947 -1.84626 -1.63584 -1.81911 -2.02953 -2.15849 -2.15849 -2.07704 -2.22637 -2.11777 -1.78517 -1.78517 -1.79875 -1.81232 -2.00238 -2.03632 -2.20601 -2.19243 -2.13813 -1.86662 -1.96165 -1.81232 -1.81232 -1.92771 -2.17207 -2.01595 -2.04989 -2.17207 -2.12456 -1.77838 -1.83947 -1.83947 -1.72408 -1.83268 -2.24673 -2.09062 -2.10419 -2.13813 -1.94807 -1.87341 -1.83268 -1.85983 -1.86662 -1.85983 -1.99559 -2.38249 -2.04989 -2.17207 -1.95486 -1.67657 -1.85983 -1.81911 -1.92771 -1.99559 -2.00916 -2.07025 -2.44358 -2.15171 -1.89377 -1.84626 -1.81232 -1.81232 -1.79875 -2.07704 -2.05668 -2.00238 -2.13134 -2.31461 -1.83947 -1.84626 -1.92092 -1.99559 -1.83268 -2.03632 -2.10419 -2.10419 -2.05668 -2.23995 -1.88699 -1.77838 -1.79196 -2.00916 -1.83947 -1.98201 -2.04989 -2.01595 -2.16528 -2.15849 -1.91414 -1.94129 -1.79196 -1.80553 -2.11098 -1.9888 -2.00916 -2.05668 -1.95486 -2.17886 -1.80553 -1.92092 -1.87341 -1.75802 -1.8259 -2.33497 -2.00916 -2.08383 -2.13134 -2.15849 -1.83947 -1.80553 -1.92092 -1.79875 -1.77838 -1.97523 -2.17207 -2.01595 -2.15849 -2.14492 -1.99559 -1.83268 -1.8259 -1.91414 -1.89377 -2.00238 -2.05668 -2.15849 -2.0974 -2.00238 -1.98201 -1.91414 -1.78517 -1.77838 -1.87341 -2.0431 -2.02274 -2.16528 -2.26031 -1.92092 -1.85983 -2.16528 -1.81911 -1.79196 -1.96165 -1.85983 -2.07025 -2.07025 -2.30104 -1.9345 -1.77838 -1.81232 -2.13813 -1.78517 -1.98201 -2.07025 -2.0431 -2.15849 -2.19243 -2.01595 -1.8802 -1.77838 -1.81232 -1.92771 -1.95486 -1.99559 -2.14492 -2.26031 -2.2128 -1.87341 -1.92092 -1.8802 -1.79196 -1.85305 -2.07704 -2.00916 -2.08383 -2.32819 -2.17886 -1.81911 -1.81911 -1.6562 -1.79875 -1.74444 -2.02953 -2.0974 -2.01595 -2.14492 -2.49788 -1.80553 -1.80553 -1.8259 -1.64942 -1.79875 -1.98201 -2.0974 -2.0974 -2.03632 -2.19243 -2.02953 -1.74444 -1.76481 -1.79875 -1.91414 -1.9888 -2.02953 -2.17886 -2.17886 -2.07704 -1.83268 -1.87341 -1.71729 -1.72408 -1.9345 -2.10419 -1.99559 -2.02274 -2.11777 -2.0431 -1.77838 -1.84626 -1.87341 -1.72408 -1.86662 -2.30104 -2.02274 -2.0974 -2.11098 -1.80553 -1.79875 -1.76481 -1.85983 -1.80553 -1.83947 -1.96165 -2.34855 -2.0431 -2.17207 -1.94129 -1.77838 -1.8259 -1.79875 -1.9345 -1.95486 -1.95486 -2.02953 -2.23995 -2.0974 -1.92771 -1.83947 -1.92092 -1.77838 -1.77838 -2.03632 -2.0431 -2.00916 -2.13134 -2.2128 -1.85983 -1.83947 -1.99559 -1.87341 -1.75123 -1.94807 -1.95486 -2.04989 -2.02953 -2.22637 -1.91414 -1.75123 -1.81911 -2.13134 -1.76481 -1.95486 -2.0431 -1.92092 -2.14492 -2.13134 -1.94807 -1.85305 -1.74444 -1.77838 -2.0431 -1.91414 -1.95486 -2.0431 -2.12456 -2.2128 -1.85305 -1.96165 -1.86662 -1.77159 -1.79875 -2.11777 -1.98201 -2.0431 -2.13134 -2.33497 -1.8259 -1.80553 -1.86662 -1.81232 -1.74444 -1.99559 -2.10419 -2.02274 -2.13134 -2.30782 -1.95486 -1.8259 -1.81232 -1.73766 -1.79196 -1.96165 -2.04989 -2.12456 -2.02953 -2.17207 -2.0974 -1.79196 -1.79875 -1.80553 -1.6562 -2.01595 -2.02953 -2.19243 -2.20601 -2.08383 -1.81911 -2.10419 -1.73766 -1.75123 -1.80553 -1.92771 -1.9888 -2.03632 -2.27389 -2.0974 -1.77159 -1.81232 -1.92771 -1.72408 -1.83947 -2.07704 -2.17886 -2.06347 -2.07704 -2.01595 -1.81232 -1.73766 -1.78517 -1.79875 -1.85305 -1.97523 -2.26031 -2.13134 -2.16528 -1.89377 -1.7105 -1.80553 -1.75123 -1.80553 -1.9888 -1.92092 -1.9888 -2.38249 -2.09062 -1.77159 -1.75802 -1.61548 -1.77838 -1.73766 -2.05668 -2.06347 -1.98201 -2.10419 -2.40964 -1.77159 -1.75802 -1.75802 -1.75802 -1.72408 -1.94807 -2.07704 -2.04989 -1.97523 -2.17886 -1.91414 -1.76481 -1.77159 -1.85983 -1.92771 -1.96165 -2.01595 -2.07025 -2.11098 -2.0431 -1.80553 -1.8259 -1.70372 -1.71729 -1.99559 -1.97523 -2.00238 -2.05668 -2.00916 -2.12456 -1.79875 -1.88699 -1.86662 -1.73087 -1.81232 -2.32819 -1.98201 -2.05668 -2.09062 -1.92092 -1.79196 -1.77159 -1.89377 -1.81911 -1.81232 -1.9888 -2.21958 -2.02953 -2.15171 -2.04989 -1.9345 -1.77838 -1.76481 -1.85983 -1.81911 -1.94129 -1.9888 -2.09062 -2.02953 -1.98201 -1.96844 -1.90735 -1.77159 -1.77838 -1.83947 -2.00238 -2.00238 -2.11777 -2.19243 -1.8259 -1.75802 -2.05668 -1.71729 -1.69693 -1.87341 -1.79196 -2.02274 -2.02953 -2.2671 -1.90056 -1.73087 -1.78517 -2.0974 -1.70372 -1.89377 -1.96844 -1.92092 -2.0431 -2.07025 -1.89377 -1.78517 -1.67657 -1.73087 -1.87341 -1.90735 -1.96165 -2.08383 -2.2128 -2.16528 -1.81232 -1.84626 -1.78517 -1.69014 -1.73766 -1.96844 -1.90735 -1.97523 -2.23995 -2.13813 -1.73766 -1.77838 -1.64263 -1.75802 -1.70372 -1.99559 -2.0431 -1.96844 -2.07704 -2.43 -1.73087 -1.73087 -1.73087 -1.5476 -1.7105 -1.91414 -2.06347 -2.06347 -2.00916 -2.16528 -1.97523 -1.73087 -1.74444 -1.79875 -1.94129 -1.95486 -1.9888 -2.11777 -2.11098 -1.9888 -1.77159 -1.81232 -1.67657 -1.69693 -1.94807 -2.08383 -2.00916 -2.04989 -2.10419 -2.01595 -1.77159 -1.8259 -1.83947 -1.67657 -1.79875 -2.24673 -1.96165 -2.02953 -2.06347 -1.73087 -1.77838 -1.75802 -1.8259 -1.80553 -1.85983 -1.96165 -2.33497 -2.01595 -2.13813 -1.83268 -1.7105 -1.72408 -1.7105 -1.84626 -1.91414 -1.89377 -1.96165 -2.16528 -2.06347 -1.80553 -1.83947 -1.91414 -1.74444 -1.73766 -1.99559 -1.99559 -1.94807 -2.0431 -2.11777 -1.7105 -1.73087 -1.90735 -1.79196 -1.69014 -1.94807 -1.91414 -2.03632 -2.02953 -2.21958 -1.87341 -1.73087 -1.77159 -2.07025 -1.69014 -1.89377 -1.94129 -1.8259 -2.05668 -2.05668 -1.83947 -1.79196 -1.69014 -1.72408 -2.04989 -1.92092 -1.95486 -2.02953 -2.11098 -2.15171 -1.75123 -1.85983 -1.74444 -1.64942 -1.71729 -2.00916 -1.90056 -1.96844 -2.13813 -2.23995 -1.77159 -1.77159 -1.77159 -1.73766 -1.73766 -1.96165 -2.02953 -1.94807 -2.06347 -2.19922 -1.7105 -1.70372 -1.69014 -1.52724 -1.75802 -1.92092 -2.02274 -2.09062 -2.02953 -1.90735 -2.08383 -1.7105 -1.72408 -1.7105 -1.76481 -1.90056 -1.92771 -2.11777 -2.10419 -1.7105 -1.70372 -1.86662 -1.6562 -1.67657 -1.96844 -2.09062 -1.98201 -2.00916 -2.24673 -1.79196 -1.69014 -1.72408 -1.75123 -1.62905 -1.86662 -2.11098 -2.0431 -2.01595 -2.05668 -1.67657 -1.76481 -1.72408 -1.79196 -1.79875 -1.89377 -1.96165 -2.33497 -2.01595 -2.13134 -1.75123 -1.57475 -1.73766 -1.70372 -1.83268 -1.96844 -1.92771 -2.01595 -2.36213 -2.11098 -1.78517 -1.8259 -1.84626 -1.78517 -1.76481 -2.07025 -2.00916 -1.96165 -2.11098 -2.19922 -1.73087 -1.75123 -1.85983 -1.90056 -1.77838 -2.00238 -2.07025 -2.09062 -2.06347 -2.18565 -1.86662 -1.73766 -1.77159 -1.96844 -1.8259 -1.94807 -2.00238 -1.91414 -2.11777 -1.97523 -1.86662 -1.84626 -1.72408 -1.76481 -2.16528 -1.95486 -1.9888 -2.0431 -1.9888 -1.96165 -1.74444 -1.86662 -1.77838 -1.64942 -1.77838 -2.13813 -1.92092 -2.02274 -2.10419 -2.11098 -1.77159 -1.76481 -1.84626 -1.75123 -1.79196 -1.92092 -2.02274 -1.92771 -2.07025 -2.00916 -1.83268 -1.70372 -1.69693 -1.71729 -1.85305 -1.91414 -1.9888 -2.09062 -2.02274 -1.8259 -2.03632 -1.7105 -1.68335 -1.67657 -1.70372 -1.9345 -1.92771 -2.07704 -2.12456 -1.68335 -1.71729 -2.06347 -1.68335 -1.69014 -1.92771 -1.8802 -2.00238 -2.02953 -2.28067 -1.78517 -1.66978 -1.69693 -1.85983 -1.6562 -1.8802 -1.9888 -2.12456 -2.07025 -2.10419 -1.86662 -1.80553 -1.71729 -1.77838 -1.79875 -1.9345 -1.97523 -2.19922 -2.13813 -2.11777 -1.77838 -1.70372 -1.77838 -1.69693 -1.81911 -2.04989 -1.96165 -2.06347 -2.41643 -2.08383 -1.79196 -1.81232 -1.62226 -1.77838 -1.78517 -2.03632 -2.03632 -1.98201 -2.11098 -2.2671 -1.7105 -1.75802 -1.77159 -1.77838 -1.80553 -1.96844 -2.11098 -2.09062 -2.04989 -1.94129 -1.85305 -1.68335 -1.69693 -1.79875 -1.9888 -1.90735 -1.96844 -2.03632 -2.12456 -1.85305 -1.81232 -1.81232 -1.69014 -1.7105 -2.12456 -1.94129 -1.95486 -1.99559 -1.94129 -1.81911 -1.69014 -1.79875 -1.74444 -1.60869 -1.8259 -2.2671 -1.9345 -2.02274 -2.04989 -1.67657 -1.75802 -1.72408 -1.83947 -1.73087 -1.84626 -1.90735 -2.14492 -1.96165 -2.0974 -1.75802 -1.83947 -1.69693 -1.70372 -1.8259 -1.9345 -1.90735 -1.9888 -2.09062 -2.06347 -1.72408 -1.91414 -1.77159 -1.68335 -1.67657 -1.8259 -1.9345 -1.90735 -2.07025 -2.13813 -1.69693 -1.75123 -2.08383 -1.72408 -1.7105 -1.95486 -1.81911 -2.02274 -2.02953 -2.23995 -1.79875 -1.69014 -1.73087 -2.00238 -1.68335 -1.90056 -1.9888 -2.09062 -2.0974 -2.0974 -1.91414 -1.81911 -1.7105 -1.76481 -1.81911 -1.90735 -1.9345 -2.11777 -2.19243 -2.07704 -1.75123 -1.72408 -1.74444 -1.68335 -1.79875 -2.02274 -1.90735 -2.00916 -2.3214 -2.06347 -1.75802 -1.73087 -1.54081 -1.68335 -1.70372 -1.96844 -1.98201 -1.90056 -2.02953 -2.28067 -1.68335 -1.70372 -1.7105 -1.53402 -1.75802 -1.91414 -2.07704 -2.0431 -1.97523 -1.8802 -1.8802 -1.64263 -1.66299 -1.69693 -1.94129 -1.8802 -1.92771 -2.08383 -2.11777 -1.76481 -1.75802 -1.78517 -1.66299 -1.69014 -2.05668 -2.00916 -1.92092 -1.96844 -2.05668 -1.74444 -1.66299 -1.71729 -1.75802 -1.61548 -1.8802 -2.25352 -1.94129 -2.01595 -2.05668 -1.58154 -1.75123 -1.69693 -1.79196 -1.71729 -1.83947 -1.90735 -2.28067 -1.96165 -2.09062 -1.73087 -1.66978 -1.73087 -1.69693 -1.85983 -1.98201 -1.92092 -2.02274 -2.19922 -2.04989 -1.73087 -1.78517 -1.85305 -1.68335 -1.70372 -1.98201 -1.95486 -1.94807 -2.11098 -2.11777 -1.7105 -1.73766 -1.96844 -1.75802 -1.75802 -1.97523 -1.87341 -2.02953 -2.00238 -2.13134 -1.81911 -1.66978 -1.69693 -2.02953 -1.74444 -1.90056 -1.96844 -1.85305 -2.09062 -1.99559 -1.85305 -1.78517 -1.6562 -1.68335 -1.99559 -1.85305 -1.88699 -1.95486 -2.06347 -1.94129 -1.69693 -1.8259 -1.71729 -1.62226 -1.77159 -1.99559 -1.89377 -1.9888 -2.11777 -2.00238 -1.69693 -1.68335 -1.69693 -1.67657 -1.77159 -1.8802 -1.95486 -1.90735 -2.06347 -2.00916 -1.7105 -1.69014 -1.69693 -1.56118 -1.87341 -1.90056 -2.00238 -2.03632 -1.98201 -1.70372 -2.02953 -1.62905 -1.62905 -1.63584 -1.77838 -1.90735 -1.9345 -2.13813 -2.11777 -1.69693 -1.71729 -1.86662 -1.64263 -1.63584 -1.92092 -2.0431 -1.9345 -1.96165 -2.17886 -1.71729 -1.64263 -1.70372 -1.74444 -1.62905 -1.86662 -2.13134 -2.02274 -2.01595 -2.05668 -1.64263 -1.70372 -1.64263 -1.72408 -1.72408 -1.83268 -1.87341 -2.24673 -1.96165 -2.0974 -1.73087 -1.56796 -1.71729 -1.68335 -1.81911 -1.96844 -1.90735 -1.97523 -2.29425 -2.0431 -1.70372 -1.74444 -1.77159 -1.7105 -1.67657 -2.02274 -1.9888 -1.95486 -2.0974 -2.18565 -1.71729 -1.75802 -1.87341 -1.85983 -1.71729 -1.9345 -1.96844 -2.01595 -1.98201 -2.07704 -1.77838 -1.64942 -1.71729 -1.94807 -1.79196 -1.91414 -1.96165 -1.90735 -2.0974 -1.96165 -1.8259 -1.78517 -1.64263 -1.66299 -2.11777 -1.88699 -1.91414 -1.95486 -1.9345 -1.86662 -1.72408 -1.85983 -1.76481 -1.62905 -1.83268 -2.13134 -1.91414 -1.98201 -2.04989 -1.8802 -1.66299 -1.66978 -1.74444 -1.6562 -1.79196 -1.87341 -1.99559 -1.91414 -2.07025 -1.85305 -1.78517 -1.66299 -1.66299 -1.62905 -1.84626 -1.81232 -1.88699 -1.9888 -1.9345 -1.62226 -1.90735 -1.56118 -1.56796 -1.57475 -1.64263 -1.8259 -1.8259 -1.9888 -1.98201 -1.53402 -1.56796 -1.89377 -1.48651 -1.48651 -1.71729 -1.62226 -1.79196 -1.78517 -2.01595 -1.56796 -1.47293 -1.53402 -1.75123 -1.50687 -1.68335 -1.77159 -1.86662 -1.85983 -1.78517 -1.61548 -1.51366 -1.43221 -1.47293 -1.5476 -1.60869 -1.66978 -1.86662 -1.96165 -1.73766 -1.50687 -1.48651 -1.50009 -1.41863 -1.5476 -1.71729 -1.61548 -1.69693 -2.00238 -1.58154 -1.42542 -1.42542 -1.25573 -1.40506 -1.51366 -1.68335 -1.73087 -1.63584 -1.79875 -1.83947 -1.39148 -1.38469 -1.36433 -1.215 -1.47972 -1.56118 -1.70372 -1.66978 -1.63584 -1.37112 -1.56118 -1.30324 -1.3236 -1.36433 -1.64942 -1.54081 -1.56796 -1.73087 -1.72408 -1.28967 -1.3236 -1.33718 -1.22858 -1.24215 -1.6019 -1.57475 -1.50009 -1.56118 -1.6562 -1.31682 -1.25573 -1.29645 -1.31682 -1.18106 -1.39827 -1.75123 -1.44578 -1.50687 -1.5476 -1.0521 -1.215 -1.1607 -1.24215 -1.19464 -1.31682 -1.37791 -1.74444 -1.42542 -1.53402 -1.18785 -1.17428 -1.14034 -1.07925 -1.22179 -1.30324 -1.24215 -1.3236 -1.45936 -1.33718 -1.01816 -1.12676 -1.1607 -0.997795 -1.03173 -1.24894 -1.23536 -1.20821 -1.34397 -1.29645 -0.909554 -0.929917 -1.14034 -0.86204 -0.916342 -1.09961 -0.997795 -1.17428 -1.17428 -1.215 -0.977431 -0.841677 -0.868828 -1.19464 -0.895979 -1.02495 -1.07925 -0.957068 -1.1607 -0.92313 -0.916342 -0.814526 -0.692347 -0.71271 -1.09282 -0.916342 -0.963856 -1.02495 -1.18106 -0.855252 -0.746649 -0.828102 -0.733073 -0.590531 -0.760224 -0.92313 -0.821314 -0.895979 -1.01816 -0.855252 -0.576956 -0.590531 -0.583744 -0.570168 -0.685559 -0.787375 -0.875616 -0.787375 -0.936705 -0.889191 -0.515867 -0.481928 -0.495503 -0.339386 -0.631258 -0.671984 -0.780588 -0.800951 -0.767012 -0.515867 -0.828102 -0.434414 -0.434414 -0.427626 -0.502291 -0.651621 -0.644833 -0.807738 -0.780588 -0.352961 -0.352961 -0.543017 -0.271509 -0.257933 -0.488716 -0.651621 -0.549805 -0.576956 -0.807738 -0.332598 -0.23757 -0.264721 -0.278296 -0.14933 -0.339386 -0.583744 -0.461565 -0.441202 -0.47514 -0.047514 -0.122179 -0.0678772 -0.122179 -0.108603 -0.217207 -0.244358 -0.597319 -0.291872 -0.3869 -0.0339386 0.203632 0.0543017 0.101816 0.00678772 -0.122179 -0.0543017 -0.101816 -0.407263 -0.190056 0.14933 0.122179 0.0746649 0.196844 0.210419 -0.108603 -0.0407263 0.0407263 -0.0610895 -0.128967 0.339386 0.319023 0.183268 0.257933 0.3869 0.183268 0.162905 0.0950281 0.142542 -0.0407263 0.332598 0.468353 0.461565 0.176481 0.495503 0.346174 0.29866 0.441202 0.196844 0.244358 0.481928 0.53623 0.665196 0.610895 0.264721 0.434414 0.407263 0.380112 0.393688 0.346174 0.671984 0.556593 0.685559 0.807738 0.719498 0.393688 0.583744 0.529442 0.454777 0.427626 0.794163 0.800951 0.726286 0.814526 0.787375 0.638045 0.543017 0.644833 0.522654 0.62447 0.794163 0.943493 0.929917 0.963856 0.841677 0.794163 0.719498 0.610895 0.678772 0.895979 0.685559 1.01137 1.03173 1.02495 1.01816 0.821314 0.841677 0.685559 0.665196 1.12676 1.09961 0.807738 1.18785 1.1607 0.916342 0.916342 0.86204 0.848465 0.597319 1.09282 1.18106 1.18106 1.08603 1.26252 1.0521 0.929917 0.828102 0.943493 0.916342 1.18785 1.215 1.28967 1.24215 1.22179 1.11997 1.06567 0.821314 0.909554 0.916342 1.2693 1.38469 1.31682 1.37112 1.29645 1.08603 1.20143 1.09961 0.733073 1.01137 1.34397 1.33718 1.5476 1.37791 1.39827 1.11997 1.14712 1.24894 1.11997 0.814526 1.47972 1.47972 1.47972 1.59511 1.50009 1.28288 1.14034 1.17428 1.23536 1.14034 1.34397 1.5476 1.54081 1.51366 1.39827 1.39827 1.36433 1.24215 1.25573 1.39827 1.61548 1.56118 1.68335 1.66299 1.37791 1.42542 1.45936 1.39827 1.41185 1.52724 1.73766 1.67657 1.69014 1.85305 1.68335 1.25573 1.59511 1.51366 1.46615 1.80553 1.75802 1.79196 1.70372 1.79196 1.73766 1.64942 1.41863 1.63584 1.53402 1.77838 1.75802 1.9345 1.95486 1.8802 1.79875 1.80553 1.73087 1.60869 1.67657 1.97523 1.81911 1.94807 2.06347 2.09062 1.99559 1.8802 1.89377 1.76481 1.71729 2.18565 2.17207 1.85305 2.2128 2.2128 1.9888 2.15849 1.94807 1.95486 1.72408 2.17207 2.3214 2.30782 2.01595 2.40964 2.19922 2.15171 2.16528 2.09062 2.05668 2.25352 2.35534 2.46394 2.43 2.34855 2.30104 2.2671 2.16528 2.06347 2.13813 2.51824 2.47752 2.54539 2.64042 2.60648 2.36213 2.43 2.36213 2.12456 2.2128 2.64721 2.64042 2.7626 2.69472 2.75581 2.52503 2.47073 2.58612 2.47073 2.20601 2.84405 2.85763 2.84405 3.06126 2.85084 2.66757 2.55897 2.54539 2.63363 2.5997 2.57255 2.97302 2.97981 2.97981 2.91193 2.78975 2.78296 2.59291 2.64042 2.86442 2.9866 2.91193 3.06126 3.06805 2.85084 2.69472 2.83048 2.80333 2.7083 2.95944 3.16308 3.11556 3.10199 3.27168 3.08841 2.72187 2.99338 2.91872 2.87799 3.28526 3.21738 3.27168 3.22417 3.24453 3.19702 3.14271 2.78296 3.12235 3.00017 3.33277 3.51604 3.42101 3.46174 3.33277 3.23774 3.28526 3.22417 2.97302 3.16308 3.48889 3.46174 3.40743 3.57034 3.59749 3.30562 3.35992 3.40743 3.31241 3.23095 3.66537 3.62464 3.52961 3.5364 3.67894 3.45495 3.4278 3.39386 3.46174 3.28526 3.65179 3.80112 3.77397 3.50246 3.80112 3.63822 3.5907 3.70609 3.47531 3.48889 3.71967 3.76718 3.88936 3.869 3.5364 3.70609 3.69252 3.65179 3.71288 3.61107 3.93688 3.84185 3.95045 4.07263 3.95724 3.60428 3.79433 3.74003 3.69252 3.67216 4.0319 4.04548 3.96403 4.08621 4.08621 3.95045 3.83506 3.93009 3.83506 3.91651 4.06584 4.18802 4.18802 4.19481 4.10657 4.05227 3.97081 3.869 3.95724 4.19481 4.00475 4.33735 4.35093 4.34414 4.35093 4.13372 4.15408 3.99797 3.93688 4.39165 4.35093 4.04548 4.43238 4.43917 4.22196 4.33056 4.18802 4.19481 3.95045 4.43238 4.52741 4.50704 4.34414 4.59528 4.3645 4.28305 4.16087 4.22196 4.20838 4.42559 4.54098 4.62922 4.60886 4.57492 4.49347 4.45953 4.26947 4.24911 4.32378 4.66316 4.71068 4.68353 4.75819 4.66995 4.44595 4.55456 4.46632 4.17445 4.44595 4.77855 4.79213 4.99576 4.85322 4.83285 4.59528 4.5885 4.6971 4.54777 4.33735 4.91431 4.90752 4.91431 5.04327 4.87358 4.73783 4.61565 4.64959 4.74461 4.86001 4.86001 5.07721 5.07721 5.0297 4.81249 4.88037 4.84643 4.68353 4.69031 5.06364 5.084 5.05685 5.18582 5.17903 4.88037 4.87358 4.98218 4.93467 4.86679 5.17903 5.28763 5.24691 5.18582 5.35551 5.11115 4.75819 5.07043 5.00255 4.96182 5.47769 5.32157 5.38266 5.28763 5.36908 5.24691 5.20618 4.84643 5.17903 5.04327 5.39624 5.45732 5.43696 5.45732 5.32836 5.24012 5.28763 5.21297 5.05006 5.19939 5.51163 5.46411 5.38945 5.5795 5.53878 5.31478 5.32836 5.34193 5.20618 5.23333 5.60665 5.58629 5.37587 5.60665 5.5795 5.39624 5.53199 5.35551 5.38266 5.4166 5.60665 5.73562 5.71526 5.37587 5.60665 5.51163 5.45054 5.56593 5.34872 5.66096 5.60665 5.70847 5.84422 5.83065 5.49805 5.67453 5.62702 5.57272 5.38266 5.84422 5.87138 5.77635 5.87138 5.97319 5.76277 5.65417 5.75598 5.66096 5.50484 5.86459 6.00713 6.00713 6.07501 6.04786 5.92568 5.86459 5.76956 5.85101 5.70847 5.78992 6.12252 6.14288 6.12931 6.32615 5.97998 6.00034 5.89853 5.88495 5.95283 6.25149 5.94604 6.31937 6.3533 6.32615 6.12931 6.10216 6.07501 5.89174 5.93247 6.39403 6.3533 6.26506 6.47548 6.44833 6.18361 6.08858 6.20397 6.17004 6.04786 6.46869 6.523 6.49585 6.46191 6.523 6.3533 6.09537 6.25149 6.21076 6.28543 6.69948 6.57051 6.63839 6.56372 6.50942 6.48906 6.44154 6.04107 6.3533 6.48906 6.62481 6.80129 6.66554 6.71305 6.46869 6.44154 6.53657 6.45512 6.17004 6.73342 6.78093 6.76735 6.81487 6.86238 6.6859 6.49585 6.54336 6.61802 6.46191 6.70626 6.9099 6.88953 6.82166 6.80129 6.80129 6.72663 6.6859 6.65196 6.69269 6.9642 6.97099 7.08638 7.06601 6.83523 6.84881 6.86917 6.81487 6.91668 6.69269 7.12032 7.05923 7.09995 7.26286 7.23571 6.69948 7.05923 7.00492 6.97777 6.97777 7.23571 7.26965 7.18141 7.27643 7.37825 7.15425 6.89632 7.15425 7.0728 7.03886 7.27643 7.42576 7.43934 7.38504 7.49364 7.3511 7.28322 7.19498 7.26286 7.14747 7.37825 7.44613 7.58188 7.58188 7.61582 7.41898 7.45291 7.37146 7.27643 7.42576 7.6837 7.41219 7.738 7.74479 7.65655 7.69048 7.49364 7.50043 7.32395 7.48685 7.81945 7.7923 7.53437 7.90769 7.82624 7.64297 7.64297 7.60903 7.60224 7.61582 7.85339 7.96199 7.90769 7.82624 7.83981 7.75836 7.63618 7.514 7.60903 7.94842 7.9552 8.00951 8.09775 8.07738 7.86696 7.92805 7.85339 7.62939 7.6837 8.09096 8.07738 8.22671 8.14526 8.20635 7.97557 7.92805 8.05702 7.9552 7.60903 8.29459 8.31495 8.30138 8.5118 8.32853 8.1249 8.02308 8.03666 8.13169 7.96199 8.11132 8.43035 8.45071 8.43035 8.36247 8.29459 8.25386 8.11132 8.15205 8.26744 8.50501 8.44392 8.60004 8.58646 8.45071 8.24708 8.38283 8.32853 8.25386 8.38283 8.69507 8.64755 8.6204 8.78331 8.6747 8.24029 8.54574 8.47107 8.41677 8.73579 8.729 8.77652 8.71543 8.76294 8.73579 8.6204 8.2878 8.61361 8.51859 8.76294 8.87833 8.90549 8.94621 8.80367 8.78331 8.77652 8.70185 8.55252 8.65434 8.89191 8.87833 8.8444 9.03445 9.05482 8.85118 8.85118 8.88512 8.76973 8.70864 9.16342 9.12948 8.89191 9.14984 9.17021 8.92585 9.07518 8.8987 8.92585 8.729 9.14306 9.27881 9.25845 8.94621 9.31954 9.12948 9.06839 9.2313 9.00051 8.97336 9.19057 9.27881 9.3942 9.36705 9.1159 9.21093 9.19057 9.14306 9.03445 9.04803 9.43493 9.30596 9.46208 9.56389 9.50959 9.22451 9.3399 9.25845 9.13627 9.02766 9.52996 9.52996 9.52317 9.56389 9.61141 9.42135 9.35347 9.44172 9.31954 9.24487 9.69965 9.71322 9.6725 9.85577 9.63856 9.51638 9.45529 9.38063 9.46887 9.52317 9.41456 9.81504 9.8354 9.81504 9.87613 9.63856 9.65213 9.48923 9.47565 9.82183 9.85577 9.61141 9.93722 9.94401 9.74716 9.61141 9.67929 9.68607 9.45529 9.94401 10.0458 10.0255 9.95758 10.1341 9.92364 9.75395 9.68607 9.76753 9.7268 10.0798 10.0865 10.1476 10.1137 10.1001 10.0322 10.0119 9.71322 9.96437 9.86934 10.2562 10.4599 10.297 10.3445 10.2562 10.073 10.1544 10.0798 9.74716 10.0526 10.3716 10.3716 10.4599 10.4599 10.4463 10.1612 10.2291 10.3105 10.1748 10.1544 10.5413 10.5142 10.4463 10.392 10.487 10.3173 10.2359 10.2495 10.3173 10.4327 10.5617 10.6839 10.6499 10.4938 10.4802 10.487 10.4056 10.4667 10.2834 10.6024 10.6092 10.616 10.745 10.711 10.2223 10.5481 10.5074 10.4531 10.5413 10.711 10.7653 10.6567 10.7517 10.8536 10.6024 10.2834 10.5549 10.4938 10.4327 10.7178 10.7993 10.7993 10.7382 10.8468 10.711 10.6703 10.5413 10.6431 10.5074 10.7653 10.7653 10.9079 10.8603 10.8671 10.6839 10.7042 10.6092 10.5006 10.6431 10.9146 10.6364 10.9622 10.9622 10.8875 10.935 10.7314 10.7246 10.521 10.6974 10.9757 10.9418 10.6567 11.0233 10.9011 10.7382 10.7314 10.6974 10.6907 10.745 10.9486 11.0572 11.0233 10.9214 10.9079 10.8128 10.6567 10.521 10.6092 10.9079 10.8943 10.935 11.03 11.0165 10.7721 10.8536 10.7653 10.5549 10.5617 10.9893 10.9825 11.0572 10.969 11.0233 10.7653 10.6907 10.7857 10.6703 10.3445 10.9961 11.0097 10.9825 11.2201 11.03 10.84 10.7517 10.7314 10.7925 10.5956 10.6771 11.03 11.0165 11.0165 11.0572 10.84 10.806 10.6499 10.6974 10.7721 11.0504 10.8875 11.1115 11.1183 11.0708 10.7382 10.8671 10.8128 10.6296 10.6974 11.0979 11.0708 11.0233 11.159 11.1115 10.7857 10.8196 10.8739 10.8332 10.9011 11.1251 11.1929 11.1658 11.1115 11.1454 10.9825 10.6771 10.9418 10.8536 10.9757 11.3491 11.1997 11.2676 11.1929 11.1319 11.1047 11.0436 10.6771 10.9893 11.1794 11.2337 11.3491 11.2744 11.3151 11.0165 11.0436 11.1047 11.0165 10.84 11.3559 11.3559 11.3083 11.2337 11.4169 11.2065 11.0911 11.1115 11.159 10.969 11.3151 11.4373 11.4034 11.2676 11.3423 11.2608 11.1997 11.2201 11.1454 11.159 11.4305 11.3966 11.5595 11.5188 11.2269 11.3015 11.288 11.2201 11.3559 11.1115 11.512 11.4305 11.478 11.6138 11.5731 11.0368 11.3762 11.3287 11.2608 11.3083 11.5391 11.5459 11.4237 11.5188 11.5798 11.3694 11.1319 11.3219 11.2201 11.2608 11.4102 11.5731 11.5798 11.4712 11.5391 11.4305 11.3762 11.2405 11.3015 11.3355 11.4034 11.4509 11.5798 11.5527 11.4848 11.3355 11.3626 11.2676 11.1658 11.5323 11.5595 11.2744 11.6341 11.6274 11.383 11.5459 11.2948 11.3015 11.064 11.4645 11.5934 11.5527 11.2676 11.6409 11.4441 11.3559 11.3355 11.2812 11.2608 11.4577 11.5459 11.6341 11.5798 11.4984 11.4102 11.3762 11.2405 11.1251 11.1997 11.5663 11.5798 11.6138 11.6884 11.6206 11.3898 11.4645 11.383 11.1115 11.2812 11.607 11.5798 11.7563 11.6409 11.6409 11.3898 11.3491 11.4373 11.3151 11.0708 11.6952 11.6817 11.6749 11.8717 11.6477 11.4712 11.3219 11.3355 11.4034 11.4509 11.4373 11.7088 11.6884 11.6681 11.4373 11.5188 11.478 11.3083 11.3355 11.6884 11.736 11.6613 11.7903 11.7563 11.4645 11.383 11.4984 11.4509 11.3355 11.6681 11.7767 11.7631 11.7156 11.8785 11.6409 11.3694 11.5527 11.512 11.4373 11.8717 11.736 11.7971 11.7292 11.7428 11.6409 11.5866 11.2065 11.5391 11.4237 11.7767 11.9735 11.8106 11.8649 11.7292 11.607 11.6681 11.5731 11.2744 11.4712 11.8174 11.7903 11.7563 11.8378 11.8514 11.5391 11.607 11.6749 11.5459 11.4509 11.9192 11.9057 11.8038 11.7563 11.8853 11.6409 11.6206 11.5798 11.607 11.5595 11.7971 11.9328 11.926 11.6681 11.8921 11.7428 11.6681 11.8174 11.5866 11.7563 11.831 11.8446 11.9667 11.9192 11.4848 11.736 11.6884 11.6206 11.6749 11.8174 11.926 11.8106 11.8921 12.021 11.8106 11.5255 11.736 11.6274 11.5391 11.6952 11.8853 11.8785 11.7971 11.8785 11.7563 11.7088 11.6002 11.6817 11.5255 11.7495 11.831 11.9396 11.9057 11.9532 11.7088 11.7156 11.6409 11.5391 11.5934 11.9057 11.6206 11.9532 11.9735 11.9464 11.9464 11.7224 11.736 11.5663 11.5798 12.0075 11.9328 11.6409 12.0007 11.9735 11.7292 11.7631 11.6749 11.6477 11.4848 11.9124 12.0143 11.9871 11.8649 11.96 11.8038 11.6952 11.5323 11.6138 11.7088 11.8514 11.9124 12.0007 11.96 11.8378 11.7903 11.7495 11.4984 11.6409 11.8514 11.9464 12.1297 12.0007 12.0753 11.8446 11.7156 11.8038 11.6884 11.3423 11.9667 11.9871 11.96 12.1975 12.0346 11.8649 11.7292 11.7495 11.8038 11.6477 11.7699 12.0753 12.0482 12.021 11.9939 11.8514 11.8106 11.6613 11.6952 11.7156 12.021 11.9532 12.1025 12.0957 11.9939 11.7156 11.8581 11.8106 11.7428 11.6545 12.0618 12.0075 11.9667 12.1161 12.0618 11.6138 11.8446 11.8106 11.7563 11.8853 12.0686 12.1093 12.0482 12.0618 12.1364 11.9396 11.5595 11.8717 11.7835 11.8921 12.1364 12.1093 12.1297 12.0007 12.0482 12.0075 11.9532 11.7631 11.8989 12.055 12.1093 12.0346 12.2043 12.184 11.9532 11.9396 11.9939 11.8853 11.8106 12.1772 12.1975 12.0346 12.1907 12.2858 12.0414 12.1025 11.9871 12.0143 11.8174 12.15 12.2926 12.245 11.926 12.2993 12.0957 12.021 12.1975 11.9464 11.96 12.1975 12.2722 12.374 12.3401 12.0618 12.184 12.1364 12.0414 11.9532 11.9124 12.2926 12.1704 12.2858 12.3876 12.3333 12.0346 12.1636 12.0957 12.0075 11.831 12.3672 12.3536 12.3061 12.3672 12.374 12.15 12.0482 12.1432 12.0143 11.8581 12.3536 12.374 12.3536 12.5844 12.3401 12.2043 12.1093 12.0618 12.1432 12.184 12.0414 12.4079 12.3876 12.374 12.4147 12.1704 12.15 11.96 11.9939 12.3061 12.4012 12.1772 12.4758 12.4622 12.279 12.1025 12.1772 12.1161 11.8853 12.2858 12.4351 12.3876 12.3401 12.4826 12.279 12.0753 12.0482 12.1297 12.0821 12.3876 12.3944 12.469 12.4419 12.3944 12.3197 12.2247 11.9057 12.1297 12.0346 12.3469 12.5573 12.3876 12.4622 12.3944 12.2179 12.2926 12.2111 11.831 12.1093 12.4622 12.4215 12.5369 12.4351 12.4555 12.1161 12.1636 12.2315 12.0957 11.8989 12.4622 12.4555 12.4147 12.3333 12.4826 12.2586 12.1297 12.1568 12.1975 12.0278 12.3401 12.4487 12.4351 12.3061 12.3061 12.2383 12.1704 12.1975 12.0957 12.1907 12.4079 12.374 12.5369 12.5166 12.1704 12.279 12.2518 12.1636 12.2926 12.1907 12.4622 12.3876 12.4147 12.5369 12.4419 11.96 12.2993 12.2179 12.1636 12.4079 12.4826 12.4894 12.3672 12.4351 12.3808 12.2654 12.0143 12.2247 12.0889 12.3265 12.3061 12.4758 12.4894 12.4079 12.3197 12.3333 12.2654 12.15 12.1975 12.4351 12.3129 12.3808 12.4826 12.4622 12.3469 12.2383 12.2586 12.15 12.0686 12.5301 12.4962 12.1636 12.5573 12.5573 12.3061 12.4419 12.2111 12.1975 11.9328 12.3944 12.5166 12.4758 12.2043 12.5369 12.3401 12.2654 12.1772 12.1907 12.1432 12.3469 12.4555 12.5301 12.469 12.3944 12.2993 12.2383 12.0821 11.9871 12.0346 12.374 12.4215 12.4215 12.4826 12.4351 12.1704 12.279 12.184 11.9124 12.0889 12.4215 12.374 12.5098 12.4079 12.4079 12.1772 12.0957 12.1975 12.0686 11.8106 12.4419 12.4351 12.3944 12.6455 12.4079 12.2315 12.0957 12.0686 12.1297 12.0957 12.0889 12.4487 12.4283 12.3944 12.2518 12.2315 12.2179 12.0346 12.0686 12.3672 12.4419 12.3808 12.5301 12.4758 12.2043 12.0618 12.184 12.1161 12.0075 12.3333 12.4283 12.4012 12.3672 12.5233 12.2993 11.96 12.2315 12.1432 12.0957 12.598 12.4079 12.4419 12.3672 12.3944 12.2858 12.2383 11.8446 12.1636 12.0346 12.4215 12.5776 12.4555 12.4826 12.3536 12.2315 12.3061 12.1907 11.9192 12.0889 12.4147 12.3876 12.2993 12.4487 12.4215 12.1229 12.2043 12.2586 12.1297 12.1025 12.5098 12.4826 12.3536 12.4012 12.4758 12.2383 12.2111 12.1297 12.184 12.1229 12.3536 12.469 12.4487 12.1907 12.4012 12.2858 12.184 12.3197 12.0957 12.2993 12.3808 12.3672 12.4894 12.4351 12.0007 12.2586 12.2043 12.1229 12.2247 12.2518 12.4351 12.3401 12.4079 12.5233 12.3536 11.9532 12.2654 12.1568 12.0957 12.279 12.4147 12.4079 12.3197 12.4147 12.3061 12.2315 12.1093 12.2315 12.1025 12.3604 12.3333 12.4962 12.4758 12.4894 12.2858 12.2858 12.1975 12.0753 12.1364 12.4419 12.1772 12.4758 12.4894 12.4622 12.4487 12.2518 12.2586 12.0957 12.0753 12.5301 12.4758 12.1364 12.5098 12.4962 12.2383 12.374 12.1704 12.1568 11.9192 12.3876 12.5098 12.4758 12.3129 12.4894 12.3061 12.2111 12.0753 12.1297 12.15 12.3129 12.3876 12.4894 12.4487 12.3604 12.2926 12.2247 12.021 12.055 12.2383 12.4283 12.503 12.469 12.5369 12.4079 12.2111 12.2926 12.1704 11.8446 12.3401 12.4555 12.4215 12.6455 12.4555 12.3536 12.1907 12.1975 12.2654 12.1025 12.0753 12.5098 12.4894 12.4555 12.4487 12.3333 12.2247 12.0618 12.1093 12.15 12.3536 12.3401 12.4894 12.4758 12.3876 12.1432 12.2654 12.2043 12.1364 12.055 12.4487 12.4012 12.3536 12.4894 12.4555 11.9871 12.2315 12.1704 12.1161 12.1636 12.4215 12.4622 12.4012 12.4079 12.5369 12.2926 11.8921 12.2111 12.1025 12.0414 12.503 12.3944 12.4079 12.2722 12.3604 12.245 12.2111 11.9667 12.1432 12.0414 12.3536 12.2315 12.4079 12.3876 12.2315 12.1161 12.15 12.055 11.9396 12.0889 12.2993 12.1364 12.2315 12.3536 12.245 12.1364 12.0482 12.0753 11.9124 12.055 12.3129 12.2654 11.96 12.2993 12.1772 11.9939 12.1704 11.9057 11.9328 12.055 12.1772 12.2858 12.2518 11.9124 12.1161 12.055 11.96 12.021 11.8038 12.1229 12.021 12.1093 12.2247 12.184 11.7428 11.9735 11.926 11.8649 11.7156 12.1093 12.1297 12.0075 12.1297 12.2383 11.9667 11.8242 11.9124 11.8242 11.6952 11.9328 12.1025 12.0821 12.0482 12.1229 11.9667 11.9124 11.8106 11.8921 11.7088 11.9057 12.0482 12.0889 12.0482 12.1297 11.8649 11.8717 11.7631 11.6613 11.736 12.0414 11.736 12.1161 12.1093 12.0821 12.0753 11.8514 11.8514 11.6477 11.6817 12.0957 12.0414 11.7631 12.1161 12.0957 11.8514 11.8446 11.8106 11.8038 11.6138 12.055 12.1364 12.1093 11.9871 12.1093 11.926 11.8174 11.6409 11.7428 11.8106 11.96 12.0346 12.1161 12.0889 11.9939 11.9464 11.8989 11.6817 11.6952 11.9328 12.0889 12.1704 12.1025 12.1568 11.9803 11.8106 11.926 11.8038 11.4916 12.0143 12.1093 12.0889 12.3265 12.1432 11.9803 11.8514 11.8242 11.8989 11.7156 11.702 12.1093 12.0889 12.0686 12.245 11.926 11.8581 11.7088 11.7495 11.8038 12.0753 11.8853 12.1297 12.1229 12.1093 11.7767 11.8853 11.8242 11.6409 11.6477 12.0957 12.0482 11.9939 12.1161 12.1093 11.7767 11.7631 11.8581 11.7971 11.6681 12.055 12.1364 12.0821 12.0278 12.1229 11.8921 11.5866 11.8242 11.7563 11.702 12.1975 12.0414 12.1025 12.0278 12.0414 11.9328 11.8649 11.4848 11.8242 11.736 12.021 12.1907 12.0414 12.0686 11.8989 11.7971 11.8514 11.7563 11.5459 11.831 12.0618 12.0278 11.9396 12.0957 11.9939 11.7631 11.8038 11.8446 11.6884 11.8174 12.0821 12.055 11.9328 11.9532 11.9803 11.8242 11.8446 11.7631 11.7971 11.9667 11.9939 12.1432 12.1025 11.8174 11.9192 11.8717 11.7835 11.9396 11.6681 12.0278 11.9464 11.9939 12.1297 12.1093 11.5866 11.9057 11.8514 11.7903 11.7563 12.055 12.055 11.9124 12.021 12.1229 11.8717 11.6749 11.8446 11.736 11.6817 11.9057 12.0686 12.0686 11.9667 12.055 11.9124 11.8581 11.736 11.7903 11.6477 11.8649 11.8921 12.0278 12.0007 11.9735 11.7903 11.8242 11.7292 11.6274 11.7292 11.9939 11.7428 12.0346 12.0346 11.9396 11.9328 11.7156 11.7088 11.5323 11.6341 11.9803 11.926 11.6206 12.0143 11.9328 11.7428 11.8378 11.6681 11.6477 11.6681 11.8989 11.9667 11.9124 11.7156 11.8174 11.7224 11.6274 11.4848 11.512 11.7767 11.7495 11.8649 11.96 11.926 11.6884 11.736 11.6817 11.512 11.383 11.831 11.8242 11.8514 11.8446 11.926 11.6817 11.5663 11.6817 11.5731 11.2948 11.8785 11.8785 11.8581 12.0618 11.9057 11.6952 11.5866 11.5391 11.6138 11.4305 11.4916 11.8717 11.8514 11.831 11.9803 11.6817 11.6681 11.512 11.5255 11.5934 11.8581 11.6884 11.9192 11.8921 11.8446 11.512 11.6341 11.5934 11.3966 11.4645 11.8853 11.8446 11.7903 11.9464 11.8649 11.5595 11.5052 11.607 11.5391 11.4984 11.7971 11.8649 11.8242 11.7699 11.8378 11.6477 11.3491 11.5731 11.5052 11.5934 11.96 11.831 11.8853 11.8242 11.7563 11.6952 11.607 11.2201 11.5323 11.6545 11.7835 11.926 11.8174 11.8378 11.5934 11.5866 11.6545 11.5527 11.3219 11.7971 11.8378 11.8106 11.702 11.8446 11.6274 11.478 11.5188 11.5731 11.3898 11.6952 11.8242 11.8174 11.6749 11.736 11.6613 11.5663 11.5934 11.4916 11.4916 11.7631 11.702 11.831 11.7971 11.5323 11.6002 11.5798 11.512 11.6274 11.3898 11.8174 11.7495 11.7495 11.8921 11.831 11.2948 11.6274 11.5391 11.478 11.5052 11.7428 11.7699 11.6545 11.7428 11.7903 11.5866 11.3355 11.5663 11.4712 11.4577 11.6477 11.7767 11.7835 11.6477 11.7156 11.5866 11.5255 11.383 11.4848 11.478 11.5866 11.6206 11.7631 11.7495 11.6613 11.5459 11.5731 11.4645 11.3559 11.6817 11.7428 11.4848 11.7495 11.7428 11.5798 11.6545 11.4577 11.4577 11.2744 11.6002 11.7835 11.7495 11.4237 11.7971 11.6341 11.5391 11.6409 11.4373 11.4169 11.5663 11.6613 11.7631 11.736 11.512 11.5731 11.5459 11.4848 11.3219 11.3762 11.736 11.6409 11.7495 11.8649 11.8106 11.512 11.6002 11.5323 11.3898 11.2472 11.7835 11.7563 11.7699 11.7971 11.8717 11.6274 11.5527 11.6274 11.5188 11.254 11.8378 11.831 11.7903 11.9532 11.8106 11.6274 11.5663 11.478 11.5663 11.4373 11.4984 11.8717 11.8785 11.8649 12.0007 11.6817 11.6681 11.4916 11.4916 11.6341 11.8242 11.5934 11.8785 11.8717 11.7699 11.512 11.607 11.5731 11.3694 11.6274 11.8989 11.8581 11.7903 11.9532 11.8106 11.5663 11.4441 11.5391 11.4916 11.6206 11.7835 11.8514 11.8106 11.7699 11.7495 11.6613 11.4102 11.5459 11.4848 11.7495 11.9464 11.8174 11.8446 11.7699 11.5663 11.6274 11.5527 11.1726 11.4509 11.7563 11.7563 11.96 11.8038 11.8378 11.512 11.5391 11.607 11.4848 11.1522 11.7767 11.7631 11.7292 11.7903 11.7835 11.5595 11.4169 11.4712 11.5527 11.3762 11.6206 11.831 11.8174 11.7631 11.6545 11.6409 11.5663 11.4373 11.4373 11.4577 11.7495 11.7156 11.8174 11.7767 11.607 11.5323 11.5798 11.5188 11.5459 11.4373 11.8106 11.7767 11.7428 11.8717 11.7767 11.2676 11.5866 11.5323 11.478 11.6884 11.7699 11.7971 11.7156 11.7835 11.7903 11.6341 11.2744 11.5866 11.4848 11.6138 11.8106 11.7767 11.7835 11.6409 11.6613 11.6206 11.5527 11.3491 11.5188 11.6884 11.7563 11.6613 11.8242 11.8446 11.6002 11.6002 11.6341 11.5188 11.4237 11.7903 11.7971 11.6341 11.7495 11.8378 11.6002 11.6884 11.5731 11.5866 11.4034 11.7428 11.8785 11.8514 11.5459 11.8921 11.6681 11.5663 11.7428 11.4984 11.478 11.702 11.7428 11.8717 11.8242 11.5323 11.6817 11.6341 11.5663 11.6206 11.4441 11.8242 11.6749 11.7631 11.8649 11.8038 11.4441 11.6206 11.5459 11.4509 11.2405 11.7835 11.7835 11.6884 11.7835 11.8514 11.6274 11.5391 11.5866 11.4577 11.3287 11.6477 11.7563 11.7428 11.8446 11.736 11.5866 11.5391 11.4373 11.5459 11.5188 11.4916 11.8242 11.8174 11.7971 11.8989 11.5731 11.5459 11.3966 11.3762 11.6613 11.7495 11.4373 11.8106 11.8242 11.6613 11.5866 11.5595 11.5255 11.3015 11.7088 11.8446 11.7903 11.6749 11.8649 11.6613 11.5255 11.3898 11.478 11.4237 11.6409 11.7495 11.8378 11.8038 11.7767 11.6613 11.6206 11.4102 11.4373 11.3966 11.7292 11.7767 11.7428 11.8174 11.7631 11.512 11.5934 11.5323 11.2405 11.4373 11.7971 11.7563 11.9871 11.8038 11.8446 11.5527 11.512 11.5798 11.4577 11.1115 11.7903 11.7767 11.7428 11.8921 11.7903 11.5934 11.4645 11.4916 11.5595 11.4169 11.5731 11.8242 11.7971 11.7495 11.5866 11.5595 11.5188 11.3694 11.4034 11.4984 11.7292 11.6884 11.8242 11.8242 11.6681 11.4373 11.5731 11.5188 11.4034 11.4645 11.7767 11.7224 11.6884 11.8242 11.7156 11.3219 11.5188 11.478 11.4441 11.7088 11.7495 11.7835 11.7292 11.736 11.7292 11.5798 11.1862 11.4984 11.3762 11.6002 11.8446 11.7156 11.736 11.607 11.5595 11.5798 11.512 11.2405 11.4305 11.6749 11.702 11.6341 11.7428 11.7428 11.4373 11.4712 11.5188 11.4034 11.2948 11.6884 11.6952 11.6002 11.6138 11.7699 11.5459 11.5052 11.4645 11.4984 11.3219 11.6002 11.7428 11.6952 11.478 11.7224 11.5527 11.4441 11.5459 11.3694 11.3898 11.6274 11.6341 11.7631 11.7292 11.4169 11.5663 11.5323 11.4441 11.5527 11.2812 11.6681 11.5595 11.6477 11.7495 11.6884 11.2201 11.5188 11.4645 11.4034 11.2337 11.6884 11.702 11.5798 11.6817 11.7495 11.4916 11.3287 11.4509 11.3559 11.2608 11.478 11.6477 11.6613 11.6206 11.6613 11.5052 11.4645 11.3626 11.4373 11.3219 11.4373 11.6206 11.6477 11.6138 11.7088 11.4169 11.4237 11.2948 11.2269 11.4305 11.6341 11.3219 11.6952 11.6817 11.5663 11.6138 11.4102 11.3762 11.1522 11.4102 11.6341 11.6002 11.3355 11.6749 11.5255 11.383 11.3762 11.3423 11.3355 11.4034 11.6002 11.702 11.6749 11.5595 11.5391 11.4645 11.3287 11.1997 11.2744 11.5731 11.5798 11.6206 11.7156 11.702 11.4712 11.5459 11.4712 11.2472 11.3015 11.7088 11.6613 11.8038 11.6817 11.7292 11.4645 11.4102 11.4984 11.3694 11.0368 11.7224 11.7292 11.7088 11.9532 11.7563 11.5527 11.4509 11.4373 11.5052 11.3219 11.4034 11.7631 11.7563 11.7292 11.7428 11.5527 11.5255 11.3694 11.4237 11.4916 11.7699 11.6681 11.8378 11.8378 11.736 11.4237 11.5527 11.4916 11.3423 11.4441 11.7971 11.7495 11.702 11.8446 11.7631 11.4102 11.5255 11.512 11.4645 11.6545 11.7767 11.8106 11.7699 11.7224 11.736 11.5934 11.2405 11.5255 11.4305 11.6002 11.96 11.7767 11.831 11.736 11.6477 11.6613 11.5798 11.2201 11.4916 11.702 11.7495 11.8446 11.7903 11.8106 11.5052 11.5391 11.6002 11.5188 11.2948 11.8174 11.8242 11.7971 11.7224 11.8785 11.6817 11.5255 11.5595 11.5866 11.4169 11.7495 11.8717 11.8446 11.6952 11.7631 11.6884 11.6138 11.6477 11.5391 11.5459 11.831 11.7971 11.9328 11.8717 11.6002 11.6749 11.6477 11.5866 11.7224 11.478 11.8514 11.7835 11.8242 11.9667 11.9124 11.3762 11.7156 11.6613 11.6138 11.607 11.8785 11.8785 11.7495 11.8446 11.9124 11.702 11.4645 11.6613 11.5731 11.607 11.7699 11.9192 11.926 11.8174 11.8785 11.7699 11.702 11.5595 11.6341 11.6817 11.7631 11.7903 11.9124 11.8785 11.8242 11.7088 11.736 11.6341 11.5323 11.8446 11.9396 11.6817 11.9939 11.9735 11.7835 11.8853 11.6681 11.6817 11.4916 11.7971 11.9667 11.9396 11.6274 12.021 11.8649 11.7428 11.7903 11.6749 11.6817 11.8038 11.9124 12.0007 11.9464 11.831 11.831 11.7767 11.6613 11.5052 11.5934 11.9192 11.8785 11.9667 12.0482 12.0143 11.7767 11.8446 11.7631 11.5663 11.4984 11.9396 11.926 11.9735 11.9532 12.0278 11.7835 11.6952 11.8038 11.6952 11.4034 12.0007 12.0075 11.9735 12.2111 12.021 11.8106 11.7088 11.6613 11.7495 11.5731 11.6274 11.9939 11.9871 11.9871 12.0889 11.8174 11.7835 11.6274 11.6409 11.7088 11.9803 11.7699 12.021 11.9871 11.9464 11.6206 11.736 11.7088 11.4916 11.5798 11.9803 11.96 11.9124 12.0414 11.9803 11.6545 11.6274 11.702 11.6341 11.6002 11.8921 11.9532 11.926 11.8785 11.9532 11.7699 11.4441 11.7292 11.6613 11.7156 12.1432 11.9735 12.0278 11.9396 11.8989 11.8174 11.7428 11.3491 11.6613 11.7563 11.9124 12.0957 11.96 12.0075 11.7903 11.7495 11.8242 11.7088 11.4645 11.9124 12.0075 11.9667 11.8785 12.0143 11.8649 11.6749 11.736 11.7767 11.607 11.8174 12.0482 12.0346 11.9057 11.96 11.9328 11.8038 11.8106 11.7224 11.736 11.8989 11.9328 12.055 12.0278 11.7971 11.8853 11.8242 11.7495 11.8989 11.6613 12.0278 11.9803 11.9871 12.1229 12.0821 11.5527 11.8514 11.7971 11.736 11.7631 11.9871 12.0143 11.9124 11.9939 12.1229 11.8785 11.6613 11.8717 11.7699 11.702 11.9328 12.0686 12.0618 11.9667 12.0482 11.8853 11.8446 11.7156 11.7971 11.6409 11.8989 11.9192 12.0686 12.055 12.055 11.8514 11.8785 11.7971 11.7088 11.7699 12.0414 11.7971 12.0753 12.0821 12.0278 12.0075 11.8106 11.831 11.6952 11.7495 12.15 12.1025 11.7903 12.1704 12.1093 11.8989 12.0414 11.8174 11.7971 11.7224 12.0482 12.1568 12.0957 11.8853 12.055 11.9464 11.8717 11.7563 11.7835 12.0007 12.0075 12.1161 12.1975 12.1364 11.8989 11.9464 11.8785 11.736 11.5866 12.021 12.0618 12.0618 12.1093 12.1907 11.9803 11.8581 11.9464 11.8378 11.607 12.0686 12.1025 12.0753 12.2247 12.1229 11.9328 11.8514 11.7767 11.8717 11.7088 11.7903 12.1568 12.1432 12.1229 12.3197 11.9464 11.926 11.8038 11.7428 11.7971 12.0753 11.7699 12.1364 12.1364 12.1025 12.0143 11.9057 11.8853 11.6884 11.702 12.1636 12.1093 11.926 12.1772 12.1432 11.8853 11.7631 11.8378 11.8038 11.5595 12.055 12.1364 12.1229 12.0618 12.1772 11.9803 11.8446 11.7224 11.831 11.7971 12.0618 12.0889 12.15 12.1025 12.055 11.9532 11.8989 11.6817 11.7088 11.7971 12.0957 12.1907 12.1297 12.1907 12.1025 11.8921 11.9871 11.8785 11.5527 11.8378 12.1297 12.0889 12.3265 12.1432 12.1025 11.8785 11.8649 11.9464 11.8038 11.6274 12.1907 12.1704 12.1636 12.279 12.0957 11.926 11.7631 11.7971 11.8581 11.9532 11.9396 12.15 12.1297 12.0957 11.8514 11.9532 11.8921 11.736 11.7428 12.1025 12.1161 12.0482 12.1568 12.1229 11.7971 11.7699 11.8446 11.7767 11.6749 12.0143 12.1093 12.0753 12.0346 12.1772 11.96 11.6613 11.8649 11.7903 11.7156 12.1636 12.0346 12.0753 12.0143 12.0143 11.8989 11.8581 11.4984 11.8106 11.702 12.055 12.2383 12.0753 12.1025 11.9871 11.8581 11.8921 11.7971 11.4916 11.702 12.055 12.0075 11.96 12.0482 12.0889 11.7631 11.831 11.8853 11.7699 11.6409 12.1229 12.0753 11.9735 11.926 12.0889 11.8378 11.8174 11.7767 11.8174 11.6138 11.9803 12.1093 12.0821 11.8378 12.1161 11.9192 11.8378 11.9803 11.7495 11.7563 11.9871 11.9735 12.0957 12.0618 11.7428 11.8785 11.8514 11.8038 11.9396 11.7224 12.0957 11.9871 12.055 12.1975 12.1229 11.607 11.9124 11.8378 11.7835 11.7835 12.0821 12.0753 11.9532 12.0686 12.1297 11.9328 11.7428 11.8989 11.7903 11.8174 11.9396 12.1161 12.0957 11.9803 12.0278 11.9124 11.8514 11.7428 11.8174 11.8785 11.9532 11.9803 12.1229 12.1093 12.0414 11.9124 11.926 11.8446 11.7292 12.0143 12.0957 11.8446 12.1161 12.1432 11.9803 12.055 11.8514 11.8581 11.6884 11.9803 12.1907 12.1364 11.8242 12.2383 12.0482 11.9124 12.0414 11.8106 11.7903 11.9464 12.055 12.1636 12.1229 11.9057 11.9939 11.96 11.8853 11.8174 11.7699 12.1364 12.0143 12.1364 12.2315 12.1704 11.831 11.9667 11.9057 11.8174 11.5798 12.1161 12.1297 12.0618 12.1568 12.245 11.9871 11.9124 11.9803 11.8649 11.6749 12.0753 12.15 12.1229 12.2111 12.15 11.9667 11.9057 11.7835 11.8921 11.7428 11.8581 12.1704 12.1772 12.1364 12.3333 11.9735 11.9328 11.7903 11.7563 11.8038 12.0821 11.7767 12.1432 12.15 12.1025 11.9735 11.8989 11.8921 11.6817 11.7495 12.1704 12.1229 11.9667 12.1907 12.1432 11.8717 11.736 11.8242 11.7971 11.6002 12.0482 12.1364 12.1161 12.0753 12.1704 11.96 11.7631 11.8106 11.8174 11.8038 12.1704 12.0889 12.1364 12.0821 12.0346 11.9667 11.9057 11.5391 11.8242 11.8106 12.1093 12.3401 12.1568 12.2043 12.055 11.9328 12.0007 11.8853 11.5798 11.8581 12.15 12.1297 12.2043 12.184 12.1229 11.8514 11.9192 11.9803 11.8446 11.7903 12.2315 12.2247 12.1704 12.0686 12.1432 11.9464 11.831 11.8446 11.8989 11.9328 12.0753 12.1907 12.1636 12.021 11.9939 11.9871 11.9057 11.926 11.7971 12.0821 12.1161 12.0618 12.1975 12.1568 11.702 11.9396 11.8921 11.8174 11.9124 12.0482 12.1364 12.0618 12.0821 12.2247 11.9871 11.607 11.9464 11.831 11.7699 12.184 12.0821 12.1161 12.021 12.1025 11.9667 11.9124 11.6884 11.8921 11.7631 12.1025 12.0143 12.15 12.1772 12.0346 11.926 11.96 11.8717 11.7563 11.7971 12.1161 11.9803 12.0143 12.1364 12.1364 11.9464 11.9124 11.9328 11.8038 11.7428 12.1975 12.15 11.8785 12.1568 12.1297 11.8785 12.0414 11.831 11.8242 11.6817 12.0346 12.1704 12.1364 11.8106 12.1297 11.9532 11.8853 11.96 11.7767 11.8649 11.9532 12.0482 12.1568 12.1093 11.831 11.9057 11.8649 11.8106 11.6274 11.926 12.0821 11.9735 12.0821 12.1772 12.0143 11.8242 11.8989 11.7767 11.6409 11.8649 12.0686 12.0278 12.055 12.0753 11.96 11.8853 11.7971 11.8785 11.7224 11.8174 12.1093 12.1025 12.055 12.1772 11.8989 11.8649 11.7699 11.6952 11.7631 12.0143 11.7156 12.1025 12.1161 12.1025 12.0753 11.8785 11.8717 11.6952 11.6884 12.1093 12.055 11.8174 12.1093 12.1161 11.8649 11.7631 11.8174 11.8038 11.5595 12.0482 12.1364 12.0957 12.021 12.1772 11.9464 11.7835 11.6884 11.7631 11.702 12.021 12.0482 12.1093 12.055 12.0346 11.9396 11.8989 11.6002 11.8174 11.7088 12.0482 12.2247 12.0957 12.1297 12.0414 11.8174 11.8921 11.7971 11.4509 11.6952 12.0482 12.0143 12.245 12.0753 12.1025 11.7903 11.8038 11.8785 11.7495 11.4373 12.0686 12.0482 12.0143 12.0821 12.0346 11.8378 11.6884 11.7224 11.7971 11.7156 11.926 12.0957 12.0821 12.021 11.8717 11.8785 11.8106 11.6681 11.6749 11.8106 12.0007 11.9735 12.0821 12.055 11.8446 11.7495 11.831 11.7835 11.7292 11.8514 12.0821 12.0482 12.0007 12.1364 11.9939 11.5934 11.8106 11.7563 11.702 12.0075 11.9871 12.0414 12.0075 12.0075 11.9871 11.8717 11.4984 11.8038 11.7156 11.9396 12.2111 12.0143 12.0482 11.9328 11.8581 11.8785 11.7971 11.4373 11.7156 11.9939 12.021 12.0753 12.0686 12.1025 11.7835 11.8446 11.8785 11.7495 11.5595 12.055 12.0346 12.0007 11.9124 12.0753 11.8581 11.7292 11.7903 11.8446 11.6749 11.96 12.1093 12.1025 11.9939 11.9667 11.8989 11.8242 11.7767 11.7224 11.7495 12.0143 11.9667 12.0957 12.0889 11.8446 11.9057 11.8853 11.8174 11.9396 11.6817 12.0889 12.0075 12.0075 12.1229 12.0686 11.5323 11.8785 11.8106 11.736 11.7903 12.0482 12.0686 11.9667 12.055 12.1161 11.8989 11.6477 11.8649 11.736 11.7224 11.9057 12.0346 12.0482 11.9328 12.0007 11.8853 11.831 11.7088 11.8174 11.8174 11.9803 11.9328 12.1025 12.0753 11.9939 11.8378 11.8649 11.7563 11.6545 11.8785 12.0482 11.8174 12.0618 12.0889 11.96 11.9871 11.831 11.831 11.6681 11.8785 12.1297 12.0753 11.7495 12.1093 11.96 11.8106 11.9871 11.7428 11.7292 11.831 11.9803 12.1025 12.0686 11.7631 11.9735 11.8921 11.8038 11.8853 11.6749 12.0007 11.8853 11.9871 12.0889 12.0482 11.6817 11.8514 11.8038 11.7292 11.512 12.0414 12.0482 11.9464 12.0618 12.1568 11.9057 11.7699 11.8717 11.7563 11.6206 11.9124 12.0618 12.0346 12.0618 12.0753 11.9328 11.8853 11.7971 11.8717 11.6952 11.8514 12.1229 12.1161 12.0753 12.2247 11.8785 11.8717 11.7699 11.6952 11.7631 12.055 11.7495 12.1364 12.1432 12.1093 12.0957 11.8989 11.8853 11.6884 11.7428 12.1364 12.0889 11.8106 12.1568 12.1093 11.8649 11.7631 11.8106 11.8106 11.6952 12.0957 12.1704 12.1297 12.0618 12.1229 11.9667 11.8174 11.6817 11.7699 11.8853 12.0007 12.0753 12.1636 12.1093 12.0143 11.9735 11.926 11.7224 11.7292 11.96 12.1161 12.2111 12.1432 12.1907 12.0143 11.8242 11.9328 11.8174 11.5188 12.0007 12.0957 12.0753 12.3197 12.15 12.0278 11.8649 11.8242 11.9192 11.7495 11.736 12.1364 12.1161 12.0889 12.2586 11.9464 11.8921 11.7428 11.7563 11.8242 12.0889 11.9124 12.184 12.1772 12.1364 11.8581 11.9396 11.8921 11.6884 11.702 12.1229 12.0821 12.021 12.1704 12.1432 11.8242 11.7495 11.8785 11.8378 11.6884 12.1093 12.1772 12.15 12.0957 12.2179 11.9667 11.6749 11.8785 11.8106 11.7563 12.2315 12.0889 12.15 12.1025 12.0821 12.0075 11.9464 11.5663 11.8717 11.7903 12.0957 12.3129 12.1025 12.1297 12.0143 11.8785 11.96 11.8649 11.5323 11.8174 12.1364 12.1297 12.1772 12.1704 12.1568 11.8378 11.8989 11.9464 11.8038 11.7224 12.15 12.1161 12.055 11.9871 12.0889 11.8921 11.8106 11.8378 11.8785 11.926 12.0821 12.2043 12.184 12.021 11.9871 11.9532 11.8649 11.8853 11.7563 12.0618 12.0889 12.0414 12.1975 12.1636 11.736 11.9667 11.9328 11.8581 11.9464 12.0821 12.1704 12.0686 12.0821 12.2247 11.9871 11.5798 11.9124 11.8378 11.7699 12.2111 12.1093 12.1432 12.0482 12.1229 12.021 11.9532 11.6817 11.8989 11.7495 12.0686 11.9667 12.1161 12.1297 12.0007 11.9192 11.9396 11.8853 11.7699 11.831 12.1432 12.0414 12.0075 12.1636 12.15 11.9124 11.8853 11.9124 11.7699 11.6884 12.1432 12.1025 11.8649 12.1229 12.1432 11.8989 12.021 11.8514 11.8785 11.6884 12.0414 12.1704 12.1161 11.8038 12.0957 11.9124 11.831 12.0007 11.736 11.7631 11.9464 12.021 12.1432 12.1093 11.7631 11.9057 11.8717 11.8106 11.7495 11.7495 12.021 11.8853 11.9939 12.1025 11.9939 11.6884 11.831 11.7563 11.6952 11.6884 12.055 12.021 11.9532 12.055 12.0075 11.8581 11.736 11.8242 11.6749 11.7224 11.9328 12.0346 11.9939 12.0753 11.8989 11.8514 11.7903 11.6884 11.7699 11.9735 11.7428 12.0889 12.0618 12.021 12.0278 11.7971 11.7971 11.6477 11.5934 12.0346 12.0143 11.7088 12.0957 12.0957 11.8514 11.8989 11.8106 11.8038 11.5323 12.0075 12.0889 12.0618 11.9192 12.1229 11.9057 11.7903 11.6409 11.7563 11.7292 11.9871 12.0821 12.1568 12.1297 12.0889 11.9871 11.9192 11.6952 11.7224 11.7428 12.055 12.1568 12.0957 12.1636 12.0753 11.8581 11.9735 11.8921 11.5798 11.8514 12.1568 12.1297 12.374 12.1704 12.1297 11.8853 11.8446 11.9124 11.7835 11.5798 12.15 12.1364 12.1364 12.2993 12.1161 11.96 11.8242 11.831 11.8921 11.9735 11.9124 12.1568 12.15 12.1025 11.926 11.926 11.8921 11.6884 11.7224 12.0278 12.1025 12.021 12.1975 12.1772 11.9396 11.7699 11.8989 11.8242 11.6613 11.9939 12.1093 12.0889 12.0618 12.1772 11.9667 11.6749 11.8785 11.8378 11.7835 12.245 12.1229 12.184 12.1161 12.1161 11.9939 11.9328 11.5595 11.8581 11.7428 12.0821 12.2993 12.1229 12.1636 12.0618 11.9328 12.0007 11.9192 11.5866 11.831 12.1772 12.1297 12.1161 12.1568 12.1568 11.831 11.8989 11.96 11.8174 11.6952 12.2111 12.1975 12.1229 12.0686 12.2247 11.96 11.8989 11.8989 11.9396 11.7903 12.1093 12.2179 12.1907 12.0075 12.1093 11.9803 11.9192 12.0007 11.8581 11.9328 12.1636 12.1297 12.279 12.2586 11.8717 12.0278 11.9871 11.9057 12.0143 11.9464 12.2043 12.0889 12.1364 12.2858 12.1432 11.7292 12.0482 11.9532 11.9057 12.1364 12.2383 12.245 12.1025 12.2111 12.1229 12.0278 11.831 11.9803 11.8514 12.0686 12.0618 12.245 12.2383 12.1704 12.0889 12.0686 12.021 11.9124 11.9328 12.1772 12.0482 12.1432 12.2383 12.2179 12.1161 11.9735 11.9939 11.8921 11.8038 12.245 12.2247 11.926 12.2722 12.2858 12.0414 12.2043 11.9532 11.9532 11.7224 12.1229 12.2586 12.2179 11.8989 12.2858 12.0957 12.0075 12.1025 11.9328 11.9192 12.0889 12.1975 12.2926 12.2315 12.021 12.055 12.0075 11.9192 11.7631 11.7903 12.15 12.0414 12.184 12.2654 12.245 11.9396 12.0482 11.9803 11.8581 11.6613 12.2043 12.1704 12.15 12.1704 12.2654 12.0075 11.9124 12.0007 11.8989 11.6681 12.2043 12.2383 12.2111 12.3604 12.2518 12.0618 11.9871 11.8853 11.96 11.8038 11.8853 12.2383 12.2179 12.184 12.3672 12.0075 12.0143 11.8649 11.8446 11.9667 12.2111 11.9124 12.2858 12.2586 12.1704 11.9803 11.9532 11.9328 11.7088 11.9057 12.2247 12.184 12.0618 12.2858 12.1975 11.9464 11.8174 11.9328 11.8921 11.9057 12.1432 12.2179 12.1636 12.1297 12.1093 11.9735 11.7903 11.7428 11.8106 11.9939 12.1636 12.1568 12.2247 12.1772 11.9939 12.0346 11.9464 11.6477 11.831 12.0753 12.1093 12.3401 12.1568 12.2111 11.9735 11.9192 12.0075 11.8989 11.5391 12.184 12.2043 12.184 12.3672 12.2247 12.021 11.8649 11.8649 11.9464 11.7699 11.8853 12.1907 12.2043 12.1907 12.1907 12.0414 11.9939 11.8242 11.8785 11.9124 12.1975 12.0753 12.245 12.2179 12.15 11.8242 11.9803 11.9328 11.7699 11.7699 12.2383 12.2043 12.1704 12.2926 12.2586 11.8785 11.9192 11.96 11.8853 11.8174 12.1432 12.1975 12.1704 12.1161 12.2383 11.9939 11.7088 11.9735 11.8989 11.8649 12.3876 12.1975 12.2518 12.1636 12.1704 12.0618 11.9871 11.5934 11.9192 11.8649 12.15 12.3401 12.1704 12.2315 12.0618 11.9735 12.0346 11.9396 11.6749 11.9735 12.2111 12.15 12.0753 12.1975 12.0889 11.8378 11.8989 11.9464 11.7903 11.9192 12.2179 12.1907 12.0753 12.1025 12.1093 11.9532 11.9328 11.8717 11.8853 12.0278 12.0686 12.1975 12.1636 11.9532 12.0143 11.96 11.8853 12.0007 11.7903 12.1432 12.1161 12.1025 12.2518 12.2179 11.6749 11.9735 11.926 11.8581 11.9057 12.1229 12.1432 12.0414 12.1093 12.2383 11.9939 11.6884 11.9803 11.8989 11.831 12.1229 12.1704 12.1772 12.055 12.15 11.9939 11.9532 11.7835 11.9057 11.7495 12.0618 11.9803 12.1772 12.1704 12.0889 11.96 11.9871 11.9057 11.8174 11.8378 12.1364 11.9396 12.0957 12.1636 12.1229 12.0075 11.8989 11.9328 11.8038 11.7699 12.2179 12.184 11.8989 12.245 12.2315 11.9667 12.1364 11.8921 11.8853 11.7495 12.0821 12.2179 12.1772 11.8378 12.1636 12.021 11.9532 11.9939 11.8649 11.96 12.0753 12.1704 12.279 12.2315 11.9464 12.021 11.9735 11.9124 11.736 11.9803 12.1704 12.0753 12.2043 12.3061 12.1704 11.9464 12.0482 11.96 11.8174 11.96 12.2043 12.1704 12.1907 12.1907 12.0957 11.9735 11.8649 11.9667 11.8242 11.8921 12.2315 12.2315 12.2179 12.374 12.0686 12.0143 11.9124 11.8242 11.8853 12.1025 11.8242 12.2043 12.1975 12.1568 12.1636 11.9667 11.9667 11.7903 11.7699 12.2315 12.1907 11.926 12.2315 12.2179 11.96 11.8853 11.8921 11.8717 11.607 12.0889 12.184 12.1568 12.0618 12.2383 12.021 11.8853 11.7631 11.8717 11.8242 12.0686 12.1161 12.1907 12.1364 12.1093 12.0143 11.96 11.7631 11.7428 11.7835 12.1229 12.1704 12.1636 12.2383 12.2043 11.9532 12.0414 11.9464 11.6477 11.7903 12.1704 12.1364 12.3197 12.1907 12.2179 11.9464 11.9192 12.021 11.8921 11.5459 12.2383 12.2315 12.2043 12.4283 12.2315 12.0007 11.8649 11.8581 11.9464 11.7835 11.8989 12.2247 12.2111 12.2043 12.184 12.0346 11.9939 11.8242 11.8717 11.9464 12.1907 12.0753 12.2383 12.2179 12.1093 11.8174 11.9464 11.8853 11.736 11.8242 12.2111 12.1704 12.1432 12.2654 12.1907 11.8446 11.9124 11.9192 11.8514 11.9192 12.1229 12.1907 12.15 12.1025 12.1229 11.9735 11.6545 11.9057 11.8378 11.9532 12.3401 12.15 12.1975 12.1161 12.021 11.9939 11.9057 11.512 11.8242 12.0346 12.0957 12.2518 12.1297 12.1907 11.9124 11.9124 11.9803 11.8581 11.607 12.1432 12.15 12.0957 12.0143 12.15 11.9396 11.7903 11.831 11.8717 11.702 11.9939 12.1568 12.1297 12.0278 12.0278 11.9667 11.8921 11.8649 11.8038 11.8106 12.0889 12.0414 12.1568 12.1432 11.9396 11.8921 11.9057 11.8717 11.9192 11.736 12.1568 12.1025 12.0821 12.2383 12.1907 11.6545 11.9464 11.8921 11.8174 11.9124 12.1161 12.1364 12.0278 12.0889 12.2247 11.9667 11.6341 11.9396 11.8514 11.7971 12.1568 12.1364 12.1297 12.0007 12.1025 11.96 11.8989 11.6681 11.8446 11.6952 12.0414 11.9464 12.1229 12.1297 11.9871 11.9057 11.9532 11.8717 11.7495 11.7767 12.0957 11.9667 11.9328 12.1093 12.0889 11.831 11.831 11.8785 11.7767 11.702 12.15 12.1093 11.926 12.1161 12.1636 11.8921 11.9803 11.8242 11.8378 11.6545 12.021 12.1432 12.1025 11.7971 12.1432 11.9667 11.8921 12.0618 11.8106 11.831 12.0482 12.1025 12.2111 12.15 11.831 11.96 11.9328 11.8785 11.8717 11.8106 12.1432 12.0143 12.1297 12.2586 12.1636 11.8038 11.9939 11.9124 11.831 11.7495 12.1432 12.1229 12.0414 12.1297 12.1093 11.96 11.8378 11.9396 11.8242 11.9057 12.055 12.1975 12.1772 12.2043 12.1025 12.021 11.9396 11.8242 11.8853 12.0753 11.9192 12.1975 12.1975 12.1568 12.1636 11.9667 11.9803 11.8514 11.7699 12.184 12.184 11.8581 12.2315 12.2111 11.9803 12.1093 11.8921 11.8853 11.6341 12.055 12.1636 12.1432 11.9124 12.2247 12.0007 11.9124 11.8514 11.831 11.7971 11.9667 12.0753 12.15 12.0957 12.0007 11.9396 11.8921 11.7495 11.6206 11.702 12.0686 12.0278 12.0889 12.1636 12.1161 11.8649 11.9532 11.8446 11.5866 11.6952 12.0686 12.0414 12.2043 12.0821 12.1161 11.8785 11.8174 11.9124 11.8038 11.4984 12.1364 12.1364 12.1161 12.3536 12.1297 11.9328 11.8174 11.8038 11.8785 11.7224 11.7699 12.1364 12.1568 12.1432 12.2858 11.9667 11.9464 11.7971 11.8174 11.8921 12.15 11.8649 12.1975 12.1975 12.1568 11.9803 11.9464 11.9192 11.7224 11.8242 12.2586 12.2247 12.0753 12.3061 12.2586 12.0007 11.8717 11.9532 11.9192 11.7292 12.1636 12.2586 12.2383 12.1568 12.245 12.0618 11.9192 11.8514 11.9464 11.926 12.2043 12.2586 12.3265 12.2858 12.2383 12.1093 12.055 11.7835 11.9328 11.926 12.2315 12.3808 12.2654 12.3265 12.2247 12.021 12.1093 12.0075 11.6681 12.0346 12.279 12.2315 12.4419 12.2586 12.2043 11.96 11.9735 12.0346 11.8853 11.7631 12.2993 12.2926 12.279 12.2926 12.2111 12.0753 11.9124 11.9396 11.9871 12.1432 12.1025 12.2926 12.2722 12.2043 11.9192 12.0414 12.0075 11.8921 11.8853 12.2654 12.2586 12.2179 12.3401 12.3197 11.9192 11.9803 12.0143 11.9464 11.9124 12.2247 12.279 12.2383 12.2111 12.374 12.1432 11.8106 12.0821 12.0075 11.9532 12.4894 12.2993 12.3197 12.2179 12.245 12.1229 12.0686 11.6884 11.9939 11.8649 12.2315 12.3197 12.2858 12.3061 12.1568 12.0346 12.1093 12.021 11.7699 11.9057 12.2315 12.184 12.0753 12.2518 12.2315 11.8921 11.9532 12.021 11.9124 11.8174 12.2722 12.2518 12.1297 12.1093 12.2654 12.0075 11.9328 11.8989 11.9396 11.7631 12.1229 12.2315 12.1907 11.9939 12.1907 12.0482 11.9532 12.055 11.8717 11.8921 12.15 12.1364 12.2383 12.184 11.8717 11.9871 11.9464 11.8989 12.021 11.7631 12.1636 12.0889 12.1432 12.2722 12.2043 11.702 12.0143 11.9532 11.8921 11.7767 12.15 12.1568 12.0346 12.1568 12.2247 11.9939 11.8038 11.96 11.8581 11.8378 12.0143 12.184 12.1772 12.1161 12.1772 12.0278 11.9532 11.8242 11.8989 11.7699 12.0346 12.021 12.1568 12.1432 12.1364 11.9803 12.0075 11.9192 11.8174 11.9192 12.1975 11.9464 12.2179 12.2179 12.1364 12.0957 11.9192 11.926 11.7495 11.8038 12.1975 12.1568 11.8378 12.2383 12.1907 11.9396 12.1161 11.8853 11.8853 11.7835 12.0889 12.1975 12.1364 11.8921 12.0821 11.96 11.8785 11.8106 11.7971 11.9939 12.0143 12.1364 12.245 12.2043 11.9735 12.0143 11.9464 11.8242 11.6206 12.0482 12.1161 12.0753 12.1229 12.2179 12.0278 11.9057 11.9871 11.8921 11.6409 12.1093 12.1704 12.1432 12.2926 12.1568 12.0007 11.8989 11.8174 11.9192 11.7428 11.7767 12.1364 12.15 12.1297 12.3604 11.9803 11.96 11.8378 11.7971 11.8581 12.1093 11.7971 12.15 12.1364 12.1161 11.96 11.8853 11.8446 11.6613 11.6884 12.1364 12.0889 11.9667 12.1636 12.1568 11.8717 11.7292 11.8581 11.7971 11.5731 12.0414 12.1432 12.1025 12.055 12.1772 11.9667 11.7903 11.7903 11.8446 11.7835 12.1297 12.1229 12.2111 12.1432 12.0821 11.9871 11.9192 11.6002 11.8514 11.7292 12.0618 12.279 12.1161 12.1772 12.0821 11.9057 11.9871 11.8921 11.5391 11.8446 12.1568 12.1093 12.2518 12.1297 12.1297 11.8242 11.8514 11.9192 11.7767 11.6613 12.1704 12.1568 12.1161 12.0482 12.1432 11.9328 11.8038 11.8242 11.8649 11.8514 12.0075 12.1568 12.1297 12.0143 11.8649 11.9057 11.8581 11.7835 11.7563 11.9532 12.0753 12.055 12.1772 12.1432 11.7903 11.8717 11.8581 11.7903 11.8106 11.96 12.1025 12.0482 12.0346 12.1975 12.0482 11.6409 11.9192 11.831 11.7971 12.1568 12.0889 12.1093 12.0346 12.0414 11.9871 11.8989 11.512 11.831 11.7088 12.0143 12.1907 12.1025 12.1229 12.0075 11.926 11.96 11.8785 11.5798 11.7767 12.055 12.0346 11.96 12.0889 12.0957 11.7563 11.831 11.8921 11.7903 11.6681 12.1297 12.0957 12.0143 11.96 12.1297 11.8853 11.8106 11.7971 11.8242 11.6681 12.0143 12.1229 12.0889 11.9192 12.0686 11.9464 11.8649 11.9464 11.7699 11.7903 12.055 12.0007 12.1229 12.0821 11.7631 11.8785 11.8649 11.7767 11.8921 11.6409 12.0482 11.9396 12.0346 12.1432 12.0821 11.6002 11.8921 11.8242 11.7563 11.607 12.0143 12.0143 11.8921 12.0007 12.0821 11.8378 11.6409 11.8242 11.7224 11.6681 11.8785 12.0346 12.0346 11.9667 12.0414 11.8717 11.8038 11.6884 11.7631 11.6274 11.8785 11.8921 12.0075 12.0007 12.0143 11.8174 11.8446 11.7631 11.6409 11.7428 12.0278 11.7699 12.0346 12.0346 11.96 11.96 11.7631 11.7631 11.5866 11.6545 12.0482 12.0143 11.6952 12.0889 12.0278 11.8106 11.9667 11.7631 11.7495 11.6274 11.96 12.055 12.0075 11.7699 11.9803 11.831 11.7428 11.6749 11.6749 11.8174 11.8785 12.0007 12.1025 12.0618 11.8853 11.8853 11.8106 11.6952 11.5052 11.8174 12.0007 11.9192 11.9871 12.0957 11.9735 11.7835 11.8785 11.7767 11.5731 11.7903 12.055 12.0346 12.1364 12.0482 11.9803 11.8038 11.7224 11.831 11.6613 11.5798 12.0414 12.055 12.0346 12.2926 11.9667 11.8514 11.7428 11.7156 11.7699 11.9124 11.6749 12.0414 12.0278 12.0143 11.9803 11.8038 11.7631 11.6002 11.6274 12.0075 12.0143 11.7767 12.0889 12.0821 11.8581 11.736 11.7631 11.7292 11.4645 11.9192 12.0346 11.9871 11.8853 12.0482 11.8514 11.7292 11.6138 11.7156 11.6613 11.9057 11.9667 12.0482 12.0075 11.96 11.8378 11.7903 11.5595 11.6341 11.5934 11.9328 12.0075 11.9871 12.0618 12.0143 11.7767 11.8649 11.8038 11.5188 11.6749 12.0278 11.9871 12.15 12.0007 12.0618 11.7767 11.736 11.8174 11.702 11.3559 12.0618 12.0753 12.0482 12.245 12.0957 11.8921 11.7631 11.7563 11.8174 11.6477 11.8242 12.1025 12.0821 12.0482 11.9192 11.8853 11.8514 11.702 11.7292 11.8174 12.0686 12.0075 12.1636 12.1297 11.9803 11.736 11.8581 11.7903 11.7156 11.7971 12.0957 12.0618 12.0414 12.1772 12.0821 11.702 11.8785 11.8446 11.7767 12.021 12.0686 12.0957 12.0414 12.0075 12.0143 11.8649 11.4984 11.8038 11.702 11.9124 12.245 12.0686 12.1025 12.0143 11.9192 11.926 11.8581 11.4916 11.7495 11.9871 12.0143 12.055 12.0482 12.055 11.7563 11.7971 11.8717 11.7699 11.6138 12.0889 12.0753 12.0143 11.9328 12.1025 11.8717 11.7495 11.7699 11.8038 11.6545 11.9532 12.0821 12.055 11.9124 12.0075 11.9396 11.8378 11.8785 11.7699 11.7903 12.0143 11.9939 12.1093 12.0753 11.8038 11.9124 11.8785 11.7971 11.9192 11.6749 12.0618 12.021 12.0414 12.1704 12.1297 11.6002 11.926 11.8649 11.7971 11.8174 12.0346 12.0686 11.9396 12.0278 12.1364 11.8785 11.607 11.8785 11.7835 11.736 11.9939 12.0821 12.0957 12.0007 12.0957 11.9464 11.8785 11.7156 11.8174 11.6817 11.9667 11.8989 12.055 12.0618 12.0075 11.8853 11.9192 11.8378 11.7292 11.7835 12.0957 11.9057 12.0346 12.0957 12.0346 11.9328 11.8174 11.8514 11.702 11.6613 12.1161 12.0753 11.7971 12.15 12.1161 11.8717 12.0482 11.8242 11.8106 11.6681 12.0075 12.1093 12.0686 11.7631 12.055 11.8853 11.8174 11.926 11.7428 11.8649 11.9667 12.055 12.1636 12.1161 11.8581 11.926 11.8649 11.7767 11.5798 11.8853 12.0482 11.9328 12.0346 12.1364 11.9939 11.8106 11.9057 11.8106 11.6545 11.8649 12.0889 12.055 12.0889 12.0686 11.9464 11.8378 11.7495 11.831 11.6681 11.7088 12.0618 12.0753 12.0482 12.2518 11.926 11.8649 11.7699 11.7156 11.7631 12.0075 11.6749 12.0482 12.0414 12.0346 11.9735 11.8038 11.7835 11.607 11.6341 12.0686 12.0346 11.8242 12.1025 12.0957 11.8649 11.736 11.7903 11.7495 11.5052 11.9532 12.0618 12.0143 11.9464 12.1161 11.9057 11.7563 11.6681 11.7631 11.7224 11.9803 12.0414 12.1229 12.0753 12.0414 11.9124 11.8581 11.6409 11.7224 11.6749 12.0007 12.1093 12.0618 12.1364 12.0889 11.8378 11.9328 11.8581 11.5391 11.736 12.0821 12.0414 12.2518 12.0821 12.1229 11.8446 11.8106 11.8921 11.7767 11.4305 12.1364 12.1432 12.1161 12.279 12.1432 11.9328 11.7903 11.8106 11.8581 11.7088 11.8581 12.1229 12.1025 12.0482 11.9192 11.8989 11.8717 11.7292 11.7495 11.8581 12.0889 12.0278 12.1704 12.1364 11.9328 11.7563 11.8514 11.7835 11.736 11.8242 12.0686 12.0278 12.0075 12.1636 12.0143 11.6206 11.8581 11.8038 11.736 12.0889 12.0414 12.0686 12.0007 11.9939 11.9803 11.8446 11.4712 11.7835 11.6817 11.9328 12.2111 12.0482 12.0753 11.9667 11.8853 11.9057 11.8174 11.4848 11.7088 11.9803 11.9871 12.0007 12.0414 12.055 11.736 11.7971 11.8649 11.7699 11.5866 12.0821 12.0618 12.0143 11.926 12.0889 11.8446 11.7292 11.7428 11.7903 11.6206 11.9464 12.055 12.0346 11.8785 11.9803 11.9057 11.8174 11.8446 11.736 11.7495 12.0346 11.9667 12.1025 12.0482 11.7835 11.8514 11.8378 11.7495 11.8514 11.6138 12.0278 11.9667 11.9803 12.1093 12.0482 11.5255 11.8514 11.7971 11.7224 11.7631 11.9871 12.0075 11.9057 11.9803 12.055 11.8174 11.5459 11.8106 11.7156 11.6817 11.9803 12.021 12.0482 11.9057 12.0075 11.8581 11.7903 11.6002 11.7428 11.6409 11.9192 11.8242 12.0075 12.0075 11.9124 11.8242 11.8581 11.7699 11.6749 11.7428 12.0346 11.8785 11.9464 12.0482 11.9871 11.8514 11.7699 11.7903 11.6545 11.5934 12.0618 12.0278 11.7495 12.1025 12.0686 11.8174 11.9939 11.7563 11.7563 11.607 11.9532 12.0618 12.0346 11.702 11.9939 11.8378 11.7767 11.8853 11.7088 11.8174 11.9124 11.9939 12.1229 12.0686 11.8038 11.8785 11.8242 11.7224 11.5255 11.8378 12.0007 11.8853 11.9939 12.1025 11.96 11.7903 11.8921 11.7903 11.6409 11.8174 12.0686 12.0278 12.0482 12.0278 11.9532 11.8174 11.7224 11.8106 11.6545 11.6952 12.021 12.0482 12.0278 12.1704 11.926 11.8649 11.7835 11.702 11.7631 11.9464 11.702 12.0414 12.0414 12.0278 12.055 11.7971 11.7903 11.6545 11.6341 12.0075 12.0278 11.702 12.0821 12.0618 11.8853 11.8853 11.7631 11.7156 11.478 11.8581 12.0143 11.9735 11.8242 12.0482 11.8853 11.7428 11.6138 11.7088 11.6613 11.8581 11.9735 12.055 11.9803 11.9464 11.831 11.7767 11.6138 11.5595 11.5866 11.9192 11.96 11.9735 12.0482 12.0075 11.7563 11.8446 11.7767 11.512 11.6206 11.9939 11.9396 12.1093 11.9667 12.055 11.7699 11.6952 11.7971 11.6952 11.3559 12.0414 12.055 12.0278 12.2383 12.0686 11.8717 11.736 11.7292 11.7971 11.6206 11.7903 12.0686 12.055 12.0075 11.9124 11.8717 11.831 11.6884 11.7156 11.7631 12.0618 11.9871 12.1364 12.1025 11.9871 11.7088 11.8446 11.7971 11.6817 11.6545 12.0618 12.0414 12.021 12.1568 12.1229 11.6952 11.8514 11.8378 11.7767 11.7563 12.0346 12.0686 12.0075 11.9939 12.1025 11.8785 11.512 11.8106 11.736 11.7428 12.2315 12.055 12.0889 12.0007 12.0482 11.9328 11.8717 11.5255 11.7903 11.7631 12.0075 12.0075 12.0414 12.0618 11.8581 11.831 11.8921 11.7971 11.6545 11.8853 12.055 12.0007 11.9192 12.0957 11.9532 11.7699 11.7903 11.8514 11.6952 11.8649 12.0821 12.0686 11.9057 12.055 12.0075 11.8649 11.8785 11.7835 11.8174 12.0143 12.0007 12.1364 12.0821 11.8106 11.9328 11.8921 11.8038 11.926 11.6817 12.0618 12.0143 12.0346 12.1704 12.1093 11.6002 11.9124 11.8649 11.7767 11.7835 12.0075 12.0414 11.9192 12.0143 12.1229 11.8717 11.6341 11.8649 11.7699 11.702 11.926 12.0753 12.0618 11.9871 12.0753 11.9057 11.8514 11.702 11.7971 11.6477 11.926 11.8649 12.0414 12.0414 11.9939 11.8446 11.8785 11.7971 11.7088 11.7495 12.0686 11.8785 12.0346 12.0753 12.0075 11.9532 11.8174 11.8242 11.6681 11.6681 12.0957 12.0686 11.7563 12.15 12.0889 11.8649 12.021 11.7971 11.7835 11.5934 12.0007 12.1025 12.0686 11.8378 12.0889 11.8989 11.831 11.736 11.7835 11.8038 11.96 12.0753 12.1772 12.1364 12.0278 11.9464 11.8785 11.7292 11.6002 11.8038 12.0414 12.0143 12.0618 12.15 12.0482 11.8514 11.9532 11.8581 11.6206 11.926 12.1364 12.0957 12.2586 12.1229 12.0482 11.8853 11.8174 11.9057 11.7495 11.6749 12.1432 12.1432 12.1297 12.374 12.0143 11.9328 11.8106 11.7971 11.8514 12.0143 11.7767 12.1229 12.1297 12.1025 11.96 11.8649 11.8581 11.6749 11.7224 12.1297 12.1093 11.9803 12.184 12.1636 11.8853 11.7224 11.8378 11.7835 11.5731 12.0143 12.1093 12.055 12.021 12.15 11.9396 11.7156 11.7767 11.7971 11.7428 12.1025 12.0753 12.1297 12.0618 12.0278 11.926 11.8717 11.5527 11.8242 11.7156 12.0414 12.279 12.0889 12.1568 12.0753 11.8921 11.9667 11.8989 11.5188 11.7903 12.1093 12.0753 12.2247 12.1229 12.1568 11.8106 11.8581 11.9328 11.8242 11.5595 12.1975 12.1772 12.1432 12.1229 12.2043 11.9871 11.8242 11.8649 11.9057 11.736 12.0346 12.2111 12.1772 12.0957 12.0143 12.0007 11.9396 11.8514 11.8514 11.8853 12.184 12.1364 12.2518 12.2111 12.0346 11.8853 11.9464 11.8853 11.8853 11.7699 12.1636 12.1229 12.1025 12.2586 12.2179 11.7292 12.0075 11.9396 11.8785 11.9735 12.1636 12.184 12.1025 12.1229 12.2111 11.9735 11.5934 11.9192 11.8446 11.831 12.279 12.1568 12.1907 12.0482 12.1229 12.0007 11.926 11.6613 11.8446 11.7563 12.0753 11.9871 12.1025 12.0957 11.96 11.8921 11.96 11.8717 11.7428 11.8717 12.15 12.0618 12.0143 12.1636 12.0889 11.8785 11.8649 11.9124 11.7835 11.8038 12.1568 12.1364 11.9464 12.1636 12.1568 11.9328 12.021 11.8649 11.8853 11.9124 12.0618 12.1975 12.1432 11.8378 12.0821 11.9667 11.8989 12.0482 11.8106 12.055 12.0821 12.1432 12.2654 12.2315 11.7767 12.0482 11.9803 11.9057 11.8581 12.0753 12.1568 12.0346 12.1229 12.2383 12.0346 11.8038 11.9871 11.8989 11.8242 11.9667 12.1704 12.1772 12.0957 12.1772 12.0278 11.9532 11.8446 11.9124 11.7699 11.9667 12.0278 12.15 12.15 12.2111 11.9939 12.0143 11.9124 11.8174 11.8785 12.1636 11.8717 12.1907 12.1772 12.15 12.1364 11.9396 11.9328 11.7631 11.7224 12.2111 12.1636 11.8514 12.2315 12.2315 11.9735 12.1229 11.926 11.9057 11.6341 12.1025 12.2111 12.184 11.9667 12.2247 12.0143 11.9464 11.8581 11.8989 11.8785 12.055 12.1772 12.2722 12.2518 12.1364 12.0482 12.0007 11.8514 11.736 11.8038 12.1432 12.0889 12.1568 12.2586 12.2247 11.9803 12.0686 11.9803 11.7767 11.7767 12.2315 12.1907 12.2858 12.2247 12.2383 12.0007 11.926 12.0075 11.8717 11.6002 12.245 12.245 12.2383 12.4758 12.245 12.0686 11.9667 11.9192 11.9871 11.8649 11.8649 12.2315 12.245 12.2111 12.2247 12.0007 11.9871 11.8242 11.8581 12.0143 12.2111 12.0414 12.279 12.2654 12.1432 11.8242 11.96 11.8921 11.7156 11.8649 12.1975 12.1432 12.1093 12.245 12.1772 11.8581 11.8649 11.9057 11.8581 11.9057 12.1432 12.1975 12.1432 12.0821 12.1229 11.96 11.6274 11.8785 11.7767 11.9057 12.3061 12.1432 12.184 12.1025 12.021 12.0143 11.9396 11.5527 11.8514 11.9871 12.0957 12.2586 12.15 12.1772 11.9192 11.8853 11.96 11.8649 11.5866 12.0957 12.1636 12.1297 12.1364 12.2043 12.0346 11.8242 11.8717 11.9192 11.7631 11.96 12.1907 12.1568 12.0957 12.0414 12.055 11.9667 11.8717 11.8853 11.9192 12.15 12.15 12.2586 12.2179 12.055 11.8989 11.9735 11.9192 11.8785 11.7631 12.1907 12.1568 12.1229 12.2926 12.2586 11.7563 12.0346 11.9939 11.9192 12.0007 12.1636 12.2111 12.1229 12.1636 12.2993 12.0414 11.6545 11.9939 11.9124 11.8649 12.2654 12.2111 12.2111 12.1161 12.1907 12.0618 11.9939 11.7631 11.926 11.7699 12.1161 12.0075 12.1704 12.1636 12.0482 11.96 12.0143 11.9396 11.8242 11.8581 12.1907 12.0482 12.0686 12.1975 12.1568 11.96 11.9192 11.9328 11.8038 11.736 12.1975 12.1568 11.9192 12.2383 12.2315 11.9667 12.1432 11.9192 11.9328 11.7292 12.1093 12.2179 12.1704 11.8581 12.2247 12.0007 11.9192 12.0414 11.8514 11.8581 12.0686 12.1432 12.2518 12.2179 11.9803 12.0346 11.9939 11.9057 11.7835 11.7631 12.1568 12.0278 12.1297 12.2383 12.1907 11.8853 12.0278 11.9532 11.8581 11.6681 12.1975 12.1772 12.1093 12.1704 12.2043 11.9735 11.8785 11.9464 11.831 11.7224 12.0346 12.15 12.1432 12.2383 12.1568 12.0075 11.9396 11.831 11.9328 11.9124 11.8649 12.1704 12.1568 12.1297 12.2518 11.926 11.926 11.7835 11.7631 12.0414 12.1432 11.8378 12.2247 12.2315 12.0686 12.0753 11.9328 11.9057 11.6613 12.0007 12.1975 12.1568 11.9532 12.2315 12.0686 11.9396 11.8378 11.8921 11.8581 11.9803 12.1432 12.2247 12.2111 12.1161 12.0686 11.9871 11.8581 11.7292 11.8038 12.1161 12.0889 12.1568 12.2586 12.2315 11.9939 12.055 11.9803 11.7835 11.8174 12.2247 12.1636 12.2926 12.1907 12.2518 11.9939 11.9057 12.0075 11.8717 11.5663 12.2315 12.2315 12.2043 12.4419 12.2383 12.0346 11.9396 11.8921 11.96 11.7563 11.8446 12.1975 12.184 12.1636 12.2179 11.9735 11.9396 11.7835 11.8242 11.8649 12.1636 11.9939 12.2247 12.2179 12.1364 11.7903 11.9192 11.8649 11.6884 11.736 12.1568 12.1093 12.0618 12.2111 12.1772 11.831 11.8106 11.8853 11.8378 11.7971 12.1025 12.1704 12.1093 12.055 12.1432 11.96 11.6341 11.8785 11.7835 11.7835 12.2993 12.1432 12.2043 12.1161 12.1161 12.021 11.9735 11.5866 11.8785 11.7835 12.0889 12.3061 12.1364 12.1568 12.021 11.8717 11.9532 11.8785 11.5391 11.8378 12.1432 12.1229 12.245 12.1636 12.1229 11.8106 11.8378 11.8989 11.7631 11.607 12.1161 12.0753 12.0482 12.0007 12.0821 11.8989 11.7631 11.7835 11.8446 11.8038 11.9871 12.1093 12.0753 11.9667 11.8106 11.8514 11.7767 11.6952 11.6545 11.8581 12.0007 11.9735 12.1093 12.0889 11.7563 11.8446 11.831 11.7563 11.7903 11.8785 12.021 11.9667 11.9464 12.1025 11.8989 11.4848 11.8106 11.7495 11.702 12.1432 12.021 12.0414 11.9871 12.0143 11.9396 11.831 11.4441 11.7699 11.6477 11.9396 12.0753 11.9939 12.0278 11.9124 11.8446 11.8853 11.8174 11.5866 11.7563 12.0346 12.021 11.9057 12.0618 12.0686 11.7631 11.8038 11.8514 11.736 11.6341 12.0414 12.0482 11.9192 12.0007 12.1229 11.8921 11.8921 11.8106 11.8446 11.6477 11.9532 12.0957 12.055 11.7971 12.1093 11.8989 11.7971 11.9532 11.7495 11.7495 11.9939 12.0075 12.1161 12.0753 11.7699 11.9057 11.8581 11.7631 11.8717 11.6138 12.0075 11.8921 11.96 12.0686 12.0346 11.5934 11.8581 11.8038 11.7292 11.5798 12.0075 12.021 11.8921 11.9939 12.0618 11.8106 11.6613 11.7835 11.6681 11.5731 11.8038 11.9939 11.9939 11.9532 12.0007 11.8514 11.8038 11.6952 11.7767 11.6138 11.8038 11.9192 11.9871 11.9667 12.0346 11.7699 11.7903 11.6952 11.6138 11.6884 11.9939 11.7088 12.0346 12.0278 11.9939 11.9871 11.7699 11.7563 11.5731 11.5595 12.021 11.9667 11.6477 12.0278 12.021 11.7835 11.8581 11.736 11.7224 11.512 11.96 12.0686 12.0143 11.8038 12.0143 11.8174 11.7224 11.5866 11.6477 11.6749 11.8446 11.9532 12.055 12.021 11.9328 11.8717 11.8174 11.6274 11.6274 11.7767 11.9803 12.055 11.9939 12.0618 11.9667 11.7428 11.8446 11.7428 11.4373 11.8038 12.0414 12.0278 12.2383 12.0618 12.0075 11.7903 11.7631 11.8242 11.6749 11.4916 12.0618 12.0346 12.0143 12.1297 11.9735 11.8446 11.7088 11.7428 11.8038 11.8921 11.8446 12.0957 12.0821 12.0346 11.7835 11.831 11.7835 11.6138 11.6477 11.9396 11.9939 11.9124 12.0889 12.0821 11.8785 11.6952 11.8242 11.7767 11.607 11.9328 12.0686 12.021 11.9735 12.1161 11.9464 11.6749 11.7224 11.7495 11.7156 12.055 12.0414 12.1093 12.0686 12.0346 11.9667 11.9057 11.5663 11.8106 11.6952 12.0007 12.2247 12.055 12.0889 12.0007 11.8446 11.9192 11.8446 11.4712 11.7699 12.0686 12.0482 12.2518 12.0889 12.0889 11.7767 11.7835 11.8446 11.7224 11.4373 12.055 12.021 12.0075 12.0414 12.0889 11.8785 11.7495 11.7835 11.8514 11.6749 11.9396 12.0957 12.0686 12.0007 11.8853 11.8649 11.8106 11.702 11.6884 11.7292 12.0278 11.9871 12.1093 12.0957 11.9192 11.7631 11.8446 11.7699 11.736 11.6274 12.0414 11.9667 11.9464 12.0889 12.021 11.5595 11.831 11.7835 11.736 11.8446 12.0346 12.0821 12.021 12.021 12.0753 11.8649 11.4848 11.8038 11.7088 11.6952 12.1907 11.9871 12.0346 11.96 11.9871 11.8921 11.8378 11.4577 11.7767 11.7224 12.0143 12.1297 12.0482 12.0618 11.8649 11.8106 11.8717 11.7631 11.5391 11.831 12.0618 12.0482 11.9871 12.1093 12.0278 11.7631 11.8242 11.8785 11.7292 11.7563 12.0957 12.0618 12.0075 11.9464 12.0143 11.8446 11.7699 11.7835 11.831 11.9192 12.0414 12.1704 12.1364 11.96 11.9532 11.9124 11.8242 11.8514 11.7088 11.9939 12.0278 11.9871 12.1432 12.1161 11.7088 11.926 11.8989 11.8242 11.9192 12.0346 12.1161 12.0278 12.0482 12.1704 11.9396 11.5459 11.8921 11.7971 11.7224 12.1229 12.0753 12.0957 12.0007 12.0889 11.9803 11.9192 11.6613 11.8785 11.7224 12.0278 11.9464 12.0821 12.0957 11.9735 11.8853 11.9192 11.8581 11.7088 11.8038 12.1093 12.0414 11.96 12.1364 12.1297 11.8921 11.8649 11.8853 11.7631 11.6681 12.0957 12.0686 11.8378 12.0821 12.1229 11.8853 12.0075 11.8446 11.8581 11.6545 12.0346 12.1704 12.1161 11.7903 12.1432 11.9328 11.8514 12.0346 11.7699 11.7563 11.9803 12.0482 12.1704 12.1364 11.8446 11.96 11.9532 11.8581 11.9057 11.7156 12.1025 11.96 12.055 12.1772 12.1297 11.7292 11.9192 11.8581 11.7971 11.5866 12.1229 12.1297 12.021 12.1364 12.1975 11.96 11.8174 11.9124 11.7903 11.6952 11.9396 12.0957 12.0753 12.0686 12.0889 11.9532 11.8989 11.8106 11.8717 11.7563 11.926 12.0753 12.1297 12.0889 12.1364 11.8785 11.8853 11.7903 11.6884 11.831 12.0686 11.7699 12.1297 12.1432 12.055 12.1025 11.8785 11.8717 11.6817 11.831 12.1364 12.0957 11.7903 12.1636 12.0753 11.8717 11.8717 11.8038 11.8174 11.7903 12.0889 12.1975 12.1432 12.0278 12.1093 11.9871 11.8717 11.7088 11.7835 11.9192 12.0075 12.1093 12.184 12.15 12.021 11.9939 11.9532 11.7835 11.7292 11.9464 12.1364 12.15 12.1568 12.2179 12.0889 11.8853 11.96 11.8785 11.6138 11.9532 12.1364 12.1025 12.3197 12.1704 12.0753 11.926 11.8649 11.9464 11.7971 11.7156 12.15 12.1297 12.1025 12.3333 11.9871 11.9124 11.7699 11.7563 11.8174 12.0346 11.8174 12.1636 12.1364 12.1229 11.9192 11.9057 11.8649 11.6477 11.6681 12.0686 12.0753 11.9735 12.1229 12.1025 11.8378 11.7156 11.8514 11.8174 11.6274 12.0346 12.1364 12.0957 12.0482 12.1704 11.926 11.7088 11.7428 11.7699 11.7088 12.1093 12.0278 12.0821 12.0482 12.0346 11.9464 11.9057 11.5391 11.8446 11.7156 12.055 12.2722 12.0686 12.0957 11.9939 11.8581 11.9124 11.831 11.4848 11.7495 12.1025 12.0753 12.1364 12.1229 12.1432 11.8106 11.8717 11.9328 11.7903 11.6341 12.1229 12.1025 12.0482 11.96 12.1161 11.8921 11.8106 11.8242 11.8785 11.736 12.055 12.1907 12.1432 11.9939 12.0618 11.9532 11.8649 11.8921 11.7835 11.8106 12.0686 12.021 12.184 12.1568 11.8717 11.9871 11.9464 11.8785 12.021 11.7699 12.15 12.0346 12.0753 12.1772 12.1093 11.5934 11.9192 11.8378 11.7835 11.736 12.0889 12.1025 11.9871 12.0889 12.1432 11.9328 11.7495 11.8989 11.7699 11.7495 11.8989 12.0753 12.0753 11.9939 12.055 11.9192 11.8853 11.7767 11.8581 11.8378 11.9803 12.0007 12.1432 12.1229 12.0821 11.8853 11.8989 11.7903 11.6817 11.9057 12.0618 11.7971 12.1093 12.1432 12.0075 12.0821 11.8921 11.8717 11.7088 11.831 12.1636 12.1093 11.7699 12.1704 12.0753 11.8785 11.9871 11.8174 11.7971 11.7835 12.0753 12.1975 12.1432 11.9803 12.0686 11.9667 11.8717 11.7156 11.7631 12.0075 11.9532 12.0618 12.1568 12.1161 11.8785 11.9192 11.8649 11.7156 11.6274 12.055 12.0686 12.0889 12.0957 12.184 11.9396 11.8038 11.8921 11.7699 11.4916 12.055 12.0753 12.0346 12.245 12.0889 11.926 11.8446 11.7971 11.8717 11.6952 11.7428 12.1229 12.1025 12.0618 12.2654 11.8853 11.8514 11.7292 11.702 11.7495 12.021 11.7971 12.1229 12.1297 12.1229 11.8853 11.9124 11.8853 11.6884 11.7156 12.1432 12.1025 12.0075 12.184 12.1704 11.8581 11.7224 11.8717 11.8446 11.6477 12.1093 12.1907 12.1364 12.1025 12.2247 11.9803 11.736 11.8174 11.8038 11.7428 12.1432 12.0821 12.1432 12.1025 12.0821 12.0007 11.9532 11.6206 11.8785 11.7699 12.1161 12.3333 12.1364 12.1704 12.0618 11.8581 11.9464 11.8514 11.4848 11.7699 12.0957 12.0753 12.2654 12.1297 12.1229 11.8106 11.8581 11.926 11.7971 11.5527 12.1229 12.0957 12.0686 12.0482 12.1093 11.8853 11.7428 11.7971 11.8514 11.7224 12.0075 12.1704 12.1364 12.0618 11.9464 11.9328 11.8514 11.7563 11.7292 11.7699 12.055 12.0075 12.1229 12.0889 11.9057 11.8174 11.8921 11.8174 11.8378 11.7088 12.1093 12.0618 12.021 12.1432 12.0753 11.5731 11.8649 11.8106 11.7224 11.8785 12.0143 12.055 12.0007 12.0346 12.0821 11.8921 11.5188 11.8581 11.7563 11.8378 12.0957 12.0414 12.055 11.9328 11.9464 11.8853 11.8174 11.5731 11.7631 11.8853 12.0143 11.9396 12.0686 12.0753 11.8514 11.8378 11.8785 11.7631 11.6477 11.9396 12.0278 11.9124 11.8989 12.0482 11.8649 11.8106 11.7835 11.8242 11.6681 11.9192 12.0957 12.0414 11.8378 12.0686 11.8853 11.7563 11.8717 11.6884 11.6884 11.9124 11.9124 12.0414 12.0143 11.7156 11.8717 11.8242 11.7495 11.9124 11.6341 12.0075 11.8989 11.926 12.0414 11.9939 11.4916 11.8038 11.7292 11.6613 11.5866 11.9464 11.9735 11.8581 11.96 12.055 11.8106 11.6477 11.7767 11.6545 11.5527 11.7699 11.9464 11.9396 11.8921 11.9532 11.7971 11.7631 11.6749 11.7495 11.5934 11.7835 11.9396 11.9939 11.9735 12.0482 11.7631 11.7631 11.6545 11.5595 11.6341 11.9192 11.6206 11.9667 11.9803 11.9667 11.96 11.7495 11.7428 11.5731 11.5866 12.021 11.96 11.6545 12.0143 12.0007 11.7631 11.8242 11.6884 11.6817 11.4577 11.926 12.0346 12.0007 11.8038 12.021 11.8378 11.736 11.6002 11.6545 11.6613 11.8174 11.926 12.021 11.9871 11.8785 11.8106 11.7903 11.6341 11.5255 11.7224 11.9667 11.9667 11.9871 12.0753 11.9532 11.7428 11.7971 11.702 11.5052 11.7088 11.9735 11.9396 12.0482 12.0075 11.96 11.7903 11.7088 11.8038 11.6613 11.5595 12.021 12.0007 11.9532 12.184 11.8717 11.7835 11.6749 11.6138 11.6884 11.8038 11.6274 12.0075 12.021 12.0143 12.0007 11.8174 11.7903 11.607 11.607 11.9803 11.9871 11.7767 12.055 12.0346 11.8242 11.6952 11.7767 11.7563 11.5188 11.9735 12.0821 12.0414 11.96 12.1432 11.926 11.7631 11.6274 11.7224 11.6884 11.9464 12.0007 12.0753 12.0346 12.0346 11.9532 11.9124 11.6817 11.7767 11.736 12.055 12.1907 12.0889 12.15 12.0821 11.8378 11.926 11.8446 11.4848 11.7224 12.055 12.055 12.2993 12.1229 12.1704 11.8717 11.8514 11.926 11.8242 11.4509 12.1093 12.0889 12.0753 12.2111 12.1297 11.9192 11.7699 11.8242 11.9057 11.7292 11.96 12.1975 12.1704 12.15 12.055 11.9871 11.9192 11.7495 11.7835 11.8038 12.1025 12.0075 12.1568 12.1432 12.0821 11.7835 11.9464 11.9057 11.7563 11.7428 12.184 12.15 12.0957 12.2179 12.1568 11.7563 11.8378 11.8921 11.8106 11.7631 12.0889 12.1704 12.1297 12.0957 12.2247 12.0007 11.6613 11.9328 11.8446 11.8038 12.3129 12.1161 12.1568 12.0753 12.0821 11.9735 11.9057 11.5323 11.8581 11.831 12.1297 12.3129 12.1704 12.2043 12.0278 11.9396 11.9939 11.8853 11.607 11.8921 12.15 12.1229 12.0957 12.1568 12.0957 11.8378 11.9124 11.9735 11.8174 11.8581 12.2247 12.1907 12.1161 12.0278 12.1161 11.9192 11.8242 11.8446 11.8717 11.926 12.0618 12.2043 12.1704 12.0346 11.9871 11.9871 11.8989 11.9057 11.7971 12.0414 12.1025 12.0482 12.184 12.15 11.7495 11.9328 11.8921 11.8242 11.9328 12.0482 12.15 12.0957 12.1025 12.2518 12.0346 11.6274 11.9532 11.8649 11.7971 12.1704 12.1161 12.1297 12.021 12.1025 12.021 11.9532 11.6749 11.926 11.8038 12.0889 12.0753 12.1636 12.1772 12.0346 11.9871 11.9939 11.926 11.7699 11.8581 12.1161 12.0686 12.021 12.2111 12.2179 11.9871 11.9667 12.0143 11.9057 11.8242 12.2043 12.1907 12.0075 12.1432 12.2179 11.9871 12.0414 11.9192 11.9464 11.7699 12.1161 12.2858 12.2654 11.9735 12.3129 12.1093 12.021 12.1772 11.926 11.9057 12.1364 12.1432 12.279 12.2315 11.9057 12.0482 12.0414 11.9667 12.0957 11.8446 12.2383 12.1161 12.2043 12.3265 12.2722 11.7903 12.0482 11.9871 11.9396 11.8038 12.2111 12.2247 12.0957 12.2315 12.3333 12.0821 11.9057 12.055 11.9328 11.8581 12.0753 12.2315 12.2043 12.1636 12.1975 12.0414 11.9871 11.8989 11.96 11.8242 12.0346 12.1907 12.2586 12.2383 12.3061 12.0346 12.0618 11.96 11.8378 11.9192 12.2043 11.9124 12.2654 12.245 12.2111 12.1907 11.9871 11.9939 11.8446 11.8581 12.2993 12.2586 11.9328 12.3401 12.2993 12.0346 12.1568 11.96 11.9735 11.7563 12.1907 12.2858 12.2518 12.0075 12.2926 12.1093 12.0346 11.9803 11.9464 11.9532 12.1229 12.2247 12.3197 12.2722 12.1432 12.1093 12.055 11.9328 11.7563 11.9328 12.2586 12.1704 12.2722 12.374 12.2858 12.0482 12.1229 12.0278 11.8446 11.8581 12.2654 12.2315 12.3129 12.2654 12.2518 12.0414 11.96 12.0753 11.9396 11.8106 12.3061 12.2993 12.279 12.5098 12.2315 12.0889 11.9939 11.926 12.0143 12.1229 11.926 12.2926 12.2926 12.279 12.3536 12.0821 12.0821 11.8989 11.9057 12.2518 12.2926 12.0075 12.3333 12.3129 12.1093 11.9871 12.0143 11.9803 11.7224 12.1229 12.2926 12.2654 12.15 12.3604 12.15 12.0075 11.8649 11.96 11.9124 12.0686 12.184 12.279 12.2315 12.184 12.0889 12.021 11.8785 11.8242 11.8649 12.2043 12.2111 12.2315 12.3129 12.279 12.021 12.0753 11.9871 11.7428 11.8106 12.2179 12.1704 12.2926 12.2043 12.279 12.0278 11.9532 12.0618 11.9396 11.6138 12.2586 12.2654 12.2247 12.4351 12.245 12.0414 11.9532 11.9192 11.9939 11.7971 11.8717 12.2722 12.2722 12.245 12.3944 12.0686 12.0414 11.8785 11.8921 11.9192 12.2111 11.9532 12.2518 12.2518 12.2179 11.9124 11.9871 11.9667 11.7699 11.8174 12.279 12.245 12.1636 12.3197 12.2926 11.9532 11.8649 11.9803 11.9192 11.7767 12.2043 12.2722 12.2383 12.184 12.2993 12.1025 11.8378 12.0346 11.96 11.9057 12.374 12.2722 12.3061 12.2315 12.2111 12.0889 12.0482 11.6952 11.9735 11.8649 12.2111 12.4555 12.279 12.3265 12.2247 12.055 12.1297 12.0482 11.702 11.96 12.2993 12.2722 12.3536 12.2926 12.2993 11.9464 11.9939 12.055 11.9464 11.7903 12.3265 12.3061 12.2383 12.15 12.3197 12.0753 11.9532 11.9735 12.0075 11.8446 12.1907 12.3129 12.279 12.1297 12.1568 12.1093 12.0482 12.0957 11.9667 12.021 12.2654 12.2383 12.374 12.3265 12.0075 12.1093 12.0753 12.0075 12.1297 11.9328 12.2722 12.1975 12.2518 12.3876 12.3197 11.7903 12.1229 12.055 12.0007 12.0414 12.279 12.279 12.1568 12.2518 12.3129 12.0889 11.831 12.0414 11.9532 11.9735 12.15 12.3061 12.2993 12.1636 12.2586 12.1432 12.0686 11.9057 12.0007 11.9871 12.1704 12.0957 12.2722 12.2586 12.1297 12.055 12.1093 12.0143 11.9328 12.1229 12.279 12.1229 12.2179 12.3197 12.1907 12.0889 12.0075 12.0278 11.8853 11.9871 12.2993 12.279 12.0278 12.3604 12.2586 12.0753 12.2518 12.0075 12.021 12.0889 12.2315 12.3401 12.2993 11.96 12.1907 12.0957 12.021 12.1297 11.9057 12.2315 12.1568 12.2518 12.3604 12.3265 11.9124 12.1297 12.0618 11.9871 11.7971 12.2179 12.2586 12.1297 12.2518 12.3536 12.1229 11.96 12.1093 12.021 11.926 12.1229 12.3129 12.2993 12.2654 12.3129 12.1568 12.0821 11.9803 12.0482 11.8853 12.1093 12.1772 12.2926 12.2926 12.3265 12.1093 12.1364 12.0414 11.9192 11.9939 12.3061 12.0143 12.3129 12.3129 12.279 12.245 12.055 12.055 11.8921 11.8717 12.3469 12.2993 11.9871 12.374 12.3672 12.1025 12.2722 12.0414 12.0143 11.7699 12.2179 12.3265 12.2858 12.0007 12.3129 12.0957 12.0278 12.0278 11.9667 11.9871 12.1364 12.2654 12.3672 12.3333 12.1772 12.1364 12.0889 11.9735 11.8038 11.9667 12.2586 12.184 12.279 12.3808 12.3129 12.0889 12.1704 12.0753 11.9057 11.8853 12.3401 12.2926 12.3401 12.2993 12.3265 12.0889 11.9939 12.0957 11.9464 11.6884 12.3129 12.3129 12.2926 12.503 12.3265 12.1297 12.0482 11.9803 12.0618 11.9192 11.926 12.3197 12.3129 12.2858 12.374 12.0618 12.055 11.9124 11.9192 12.0957 12.279 12.055 12.3536 12.3401 12.2247 12.0143 12.0346 11.9939 11.7835 11.9803 12.2926 12.245 12.15 12.3401 12.2586 12.0075 11.9057 12.0075 11.9803 11.9532 12.2654 12.3333 12.2722 12.2247 12.2383 12.0821 11.8514 11.9532 11.9192 12.0346 12.3333 12.2722 12.3536 12.3197 12.1907 12.1636 12.0957 11.7631 12.0075 12.1297 12.2586 12.4622 12.2993 12.3536 12.1772 12.0414 12.1297 12.0414 11.6884 12.1364 12.3333 12.3129 12.5098 12.3672 12.279 12.021 12.0346 12.1093 11.96 11.9124 12.3469 12.3401 12.2926 12.2586 12.279 12.1297 12.0007 12.021 12.0957 12.2043 12.2383 12.3944 12.3536 12.279 12.0007 12.1229 12.0686 11.9192 11.9192 12.2926 12.2858 12.2654 12.3944 12.3808 12.0414 11.9939 12.0889 12.0278 11.9124 12.2383 12.3061 12.2518 12.2179 12.3672 12.1093 11.8038 12.0143 11.9735 11.9124 12.3876 12.2722 12.3129 12.245 12.245 12.15 12.0821 11.7224 12.0007 11.8717 12.2247 12.4419 12.245 12.279 12.1975 12.0346 12.1229 12.055 11.6817 11.9464 12.2926 12.279 12.3876 12.2926 12.3061 11.9667 12.0075 12.0753 11.9396 11.7156 12.279 12.2654 12.2518 12.1704 12.3265 12.0821 11.9532 12.0007 12.055 11.8581 12.1704 12.3061 12.2722 12.1907 12.1093 12.0753 12.0075 11.9057 11.8989 11.9667 12.245 12.2111 12.3197 12.2993 12.1093 12.0143 12.0414 11.9667 11.96 11.8378 12.245 12.184 12.1297 12.279 12.2247 11.7699 12.0414 12.0007 11.9396 12.0414 12.2383 12.279 12.2315 12.2043 12.2993 12.0686 11.6952 12.0143 11.9124 11.926 12.3944 12.2383 12.2858 12.1704 12.2179 12.1297 12.0618 11.7292 11.9939 12.0414 12.2247 12.1568 12.245 12.2654 12.0482 12.021 12.0686 11.96 11.831 12.1161 12.279 12.2111 12.1432 12.3197 12.1907 12.0075 12.0143 12.0482 11.8989 12.0618 12.2926 12.2722 12.0753 12.245 12.2043 12.0414 12.0957 11.9871 12.021 12.1025 12.2179 12.3672 12.3333 12.0346 12.2111 12.0957 12.0143 12.1704 11.9124 12.1093 12.1772 12.2111 12.3604 12.3197 11.9057 12.1229 12.0821 12.0143 12.1093 12.1364 12.2926 12.1568 12.2383 12.3536 12.1907 11.8038 12.0753 11.9735 11.9396 12.1364 12.2722 12.2926 12.1568 12.2926 12.2179 12.0889 11.8989 12.0414 11.8989 12.1093 12.0618 12.245 12.2247 12.1364 12.0821 12.0686 12.0075 11.9124 11.9735 12.1907 12.0821 12.1907 12.2858 12.2586 12.1432 12.0143 12.0278 11.9124 11.8174 12.2043 12.2179 11.96 12.279 12.2993 12.1297 12.2043 12.021 12.0346 11.8514 12.1297 12.3197 12.2586 11.926 12.3129 12.1568 12.021 12.1772 11.9328 11.9328 12.0889 12.1975 12.3265 12.2926 11.9803 12.15 12.0821 12.0143 12.0075 11.8717 12.1907 12.1025 12.2111 12.3197 12.279 11.8921 12.0889 12.0482 11.9735 11.7631 12.2518 12.279 12.1704 12.2858 12.374 12.1093 11.9803 12.055 11.9464 11.8174 12.0753 12.245 12.2179 12.2383 12.2654 12.1161 12.0753 11.9735 12.0346 11.8717 12.0686 12.2586 12.2858 12.2518 12.3672 12.0618 12.0821 11.96 11.8717 11.9396 12.2654 11.96 12.3197 12.3197 12.2722 12.2654 12.0346 12.0278 11.8378 11.831 12.2586 12.2179 11.8921 12.2722 12.2247 11.9735 12.0482 11.9464 11.9464 11.7428 12.1975 12.2926 12.245 12.0821 12.2722 12.0618 11.96 11.8174 11.8717 11.926 12.0686 12.1772 12.2722 12.245 12.1568 12.0889 12.0414 11.8989 11.7631 11.9464 12.2247 12.15 12.2111 12.2858 12.184 11.9735 12.0482 11.9328 11.7224 11.8989 12.2043 12.1975 12.3197 12.2586 12.1975 12.0278 11.9396 12.0482 11.8853 11.7563 12.2383 12.2315 12.2111 12.4555 12.1432 12.0143 11.8989 11.8853 11.9667 12.055 11.9124 12.2858 12.2722 12.245 12.2383 12.0278 11.9871 11.7971 11.8174 12.0414 12.1907 11.9871 12.245 12.2518 12.1364 11.8785 12.0075 11.9735 11.7495 12.0143 12.2722 12.2383 12.1636 12.3061 12.1636 11.9057 11.8514 11.926 11.8853 12.0278 12.1907 12.2722 12.2247 12.2111 12.1432 12.055 11.7835 11.9396 11.8581 12.1093 12.2722 12.1568 12.2179 12.1704 11.96 12.021 11.9464 11.607 11.8649 12.184 12.184 12.4012 12.2247 12.2586 11.9939 11.9396 12.0075 11.8785 11.5188 12.184 12.184 12.15 12.2858 12.2111 12.0075 11.8853 11.9124 11.9871 11.8038 11.9667 12.2383 12.245 12.184 12.1297 12.021 11.96 11.8242 11.8446 11.8717 12.1568 12.1025 12.2654 12.2586 12.1704 11.8785 12.021 11.96 11.8649 11.8174 12.2383 12.1772 12.1364 12.2654 12.2247 11.8038 11.926 11.9124 11.8717 11.8378 12.1568 12.2315 12.1772 12.1229 12.2518 12.0278 11.6749 11.926 11.8514 11.7903 12.3129 12.1161 12.15 12.0482 12.0889 11.9871 11.9396 11.5798 11.8853 11.8106 12.1229 12.1975 12.1568 12.1568 11.9803 11.8853 11.9328 11.8446 11.6341 11.8106 12.0957 12.055 12.0075 12.1364 12.1229 11.8106 11.8649 11.9192 11.7971 11.7088 12.1364 12.0957 12.0143 11.96 12.1229 11.8785 11.7903 11.7971 11.8446 11.7292 12.0414 12.1704 12.1229 11.9735 12.021 11.9532 11.8581 11.8514 11.7495 11.8038 12.0482 12.0075 12.1432 12.1025 11.8174 11.9057 11.8921 11.8378 11.926 11.7903 12.1297 12.0618 12.0618 12.1975 12.0889 11.5663 11.8989 11.831 11.7767 11.9871 12.0686 12.1025 12.0346 12.0821 12.1364 11.9532 11.5934 11.9124 11.8106 11.9328 12.2247 12.1229 12.1364 12.0007 12.0414 11.9735 11.9057 11.6681 11.8378 11.9328 12.0889 11.9939 12.1432 12.15 11.9057 11.8989 11.9396 11.8106 11.702 12.021 12.0821 11.9667 11.9532 12.1093 11.9057 11.8446 11.831 11.8785 11.7156 11.96 12.1364 12.1161 11.8785 12.1364 11.9667 11.831 11.96 11.7631 11.7699 11.9124 11.9939 12.1093 12.0821 11.7903 12.0007 11.9328 11.8514 12.0007 11.736 12.0278 12.0007 12.0414 12.1432 12.1025 11.6681 11.926 11.8785 11.8038 11.736 12.0414 12.1093 12.0007 12.1093 12.2179 11.9871 11.7903 11.9464 11.8378 11.736 11.8989 12.1025 12.1025 12.0346 12.1025 11.9532 11.9124 11.8106 11.8989 11.7563 11.9871 12.0414 12.1432 12.1364 12.1704 11.926 11.9328 11.8446 11.736 11.8038 12.0957 11.8581 12.1229 12.1432 12.1297 12.0957 11.9328 11.9192 11.7699 11.7224 12.1975 12.1432 11.8038 12.1704 12.15 11.8989 12.0821 11.8446 11.8378 11.6002 12.055 12.1772 12.1364 11.8446 12.1704 11.9667 11.8921 11.8717 11.8038 11.7699 11.9396 12.0482 12.15 12.1093 11.9803 11.9192 11.8921 11.7971 11.6409 11.7699 12.0821 12.0143 12.0957 12.1772 12.1161 11.8514 11.926 11.8242 11.6477 11.6613 12.0753 12.0414 12.1161 12.0753 12.1161 11.8989 11.8174 11.8989 11.7699 11.5255 12.1161 12.1093 12.055 12.2722 12.0686 11.8921 11.8038 11.7428 11.8378 11.7224 11.736 12.1297 12.1297 12.1229 12.2247 11.926 11.9057 11.736 11.7428 11.8514 12.0686 11.8649 12.1229 12.1093 12.0414 11.7563 11.8378 11.8174 11.6206 11.7835 12.1229 12.0753 11.9939 12.15 12.0957 11.7903 11.6817 11.7835 11.7292 11.6409 12.0007 12.0686 12.0346 12.0007 12.0821 11.8853 11.6749 11.7631 11.7495 11.7631 12.1297 12.0482 12.0821 12.0143 11.9464 11.8717 11.831 11.4577 11.7292 11.7292 11.9803 12.2247 12.055 12.1025 11.926 11.8038 11.8921 11.7835 11.4237 11.8446 12.0414 12.0007 12.1907 12.0482 11.96 11.7224 11.7428 11.8242 11.6884 11.6341 12.0821 12.0686 12.0346 12.0753 11.9871 11.8446 11.6613 11.6952 11.736 11.8785 11.8581 12.0414 12.021 11.96 11.7088 11.8038 11.7767 11.6274 11.6274 11.9871 11.9871 11.9396 12.0482 12.021 11.702 11.6409 11.736 11.6613 11.5731 11.8853 11.9803 11.9396 11.9192 12.0686 11.831 11.4984 11.7495 11.6817 11.607 12.1025 11.9192 11.9532 11.8717 11.8921 11.7835 11.7224 11.3423 11.6681 11.5527 11.9124 12.1229 11.9396 11.9667 11.8581 11.7224 11.7835 11.6817 11.3423 11.5798 11.9192 11.8853 11.8785 11.9328 11.9396 11.6138 11.6952 11.7631 11.6409 11.512 12.0007 11.9735 11.9192 11.8378 11.9939 11.7428 11.6681 11.6681 11.7224 11.5391 11.8921 12.0075 11.9871 11.8446 11.9328 11.8446 11.7631 11.7903 11.6817 11.6884 11.96 11.8989 12.0482 12.0075 11.7428 11.8106 11.7835 11.7088 11.831 11.607 12.021 11.9464 11.9667 12.0889 12.0414 11.5052 11.8378 11.7699 11.6952 11.6952 11.96 11.9939 11.8785 11.9464 12.0414 11.8106 11.4984 11.8106 11.7156 11.6545 11.9735 11.9939 12.0143 11.8853 11.9667 11.8174 11.7563 11.5663 11.7088 11.5459 11.8717 11.7767 11.9667 11.9667 11.8717 11.7699 11.8106 11.7292 11.6206 11.6681 11.9667 11.8174 11.8581 11.9667 11.9464 11.7428 11.6952 11.7088 11.5866 11.5391 11.9871 11.9532 11.736 11.9532 11.9735 11.7088 11.8174 11.6477 11.6545 11.478 11.8242 11.96 11.926 11.6138 11.9192 11.7495 11.6884 11.8581 11.607 11.6409 11.8514 11.8853 12.0075 11.9667 11.6206 11.7699 11.7292 11.6613 11.736 11.5731 11.9192 11.8038 11.8989 12.0278 11.96 11.5459 11.7903 11.7088 11.6613 11.5798 11.9667 11.96 11.8378 11.9396 11.9735 11.7767 11.6206 11.7428 11.6206 11.6817 11.8174 11.9939 11.9939 11.9124 11.9464 11.8378 11.8038 11.6817 11.7292 11.7835 11.8378 11.8853 12.0143 11.9939 11.9192 11.7767 11.8174 11.7224 11.6274 11.9396 12.021 11.7699 12.0482 12.0618 11.8717 11.926 11.7292 11.736 11.5595 11.8242 12.0143 11.9735 11.6681 12.0686 11.9057 11.7971 11.9532 11.7156 11.7156 11.8581 11.9532 12.0482 11.9939 11.6952 11.8717 11.8106 11.736 11.7292 11.6002 11.9464 11.8581 11.9667 12.0889 12.055 11.7088 11.8581 11.7971 11.6817 11.4645 11.9735 11.9667 11.8581 11.9803 12.0618 11.8174 11.702 11.8106 11.702 11.5731 11.8717 12.021 11.9871 12.021 12.0278 11.8446 11.7767 11.6817 11.7563 11.5866 11.7428 11.9735 11.9803 11.9667 12.1025 11.8174 11.831 11.736 11.6477 11.7156 12.0075 11.6884 12.0346 12.0143 12.0007 11.9667 11.7835 11.7631 11.6002 11.5663 12.0278 12.0007 11.7224 12.1025 12.0821 11.8242 11.831 11.7971 11.7699 11.478 11.9667 12.0414 12.0143 11.8785 12.0618 11.831 11.7292 11.5866 11.6952 11.6613 11.9057 11.9871 12.0753 12.0414 12.0143 11.8853 11.831 11.6138 11.6206 11.6274 11.9735 12.0278 11.9735 12.0618 12.0278 11.7767 11.8853 11.7971 11.4916 11.6681 12.0278 12.0007 12.2111 12.0075 12.0346 11.7292 11.7292 11.8106 11.6681 11.3219 12.0143 12.021 12.0075 12.2383 12.0618 11.8581 11.7292 11.7495 11.8106 11.6274 11.7495 12.0482 12.0414 12.0143 11.9803 11.8242 11.7903 11.6274 11.6749 11.7428 12.0278 11.9124 12.0957 12.0753 12.0075 11.6681 11.8038 11.7495 11.5731 11.6545 12.0414 11.9939 11.9667 12.0821 12.021 11.6681 11.7428 11.7835 11.7224 11.7224 12.0007 12.0686 12.021 11.96 12.0346 11.831 11.512 11.7699 11.6749 11.6681 12.1568 12.0007 12.055 11.9871 11.9871 11.8989 11.8242 11.4373 11.7563 11.6681 11.9803 12.1636 12.0007 12.0414 11.8717 11.7631 11.8174 11.736 11.4509 11.7563 12.0482 12.0143 12.0143 12.055 12.0143 11.7088 11.7563 11.8174 11.6613 11.607 12.0346 12.0143 11.9532 11.8649 11.9803 11.8038 11.702 11.7156 11.7631 11.7699 11.96 12.0686 12.0278 11.8989 11.8174 11.8038 11.7292 11.7224 11.6138 11.8921 11.9532 11.9328 12.0821 12.055 11.6681 11.8378 11.7971 11.7224 11.7699 11.8921 12.0007 11.9328 11.926 12.0753 11.8785 11.4509 11.7835 11.7156 11.6749 12.1297 12.0143 12.0346 11.96 11.9871 11.9192 11.8378 11.4509 11.7495 11.6138 11.8921 12.0686 11.9803 12.0007 11.8581 11.7971 11.8446 11.7767 11.512 11.702 12.0075 11.9803 11.9057 12.0414 12.0414 11.702 11.7563 11.7971 11.6749 11.5731 12.021 11.9735 11.8989 11.8717 12.0482 11.8106 11.7495 11.7428 11.7835 11.607 11.9532 12.0414 12.0075 11.8242 11.9667 11.8514 11.7563 11.8106 11.6749 11.7088 11.9939 11.9803 12.1161 12.0889 11.7903 11.8853 11.8717 11.7835 11.8989 11.6341 12.0414 11.9735 11.9803 12.1025 12.055 11.5188 11.8785 11.831 11.7767 11.8038 12.0686 12.0821 11.9871 12.0686 12.1364 11.9057 11.6274 11.8649 11.7767 11.7563 11.9464 12.0686 12.0753 11.9667 12.0753 11.9735 11.9057 11.7563 11.8581 11.8038 12.0143 11.9396 12.0957 12.0753 11.9735 11.8581 11.8853 11.8038 11.7156 11.8378 12.0957 11.926 12.0753 12.1568 12.0618 11.9803 11.8853 11.8921 11.7428 11.7495 12.1229 12.0821 11.7903 12.1297 12.0753 11.8446 12.0346 11.8038 11.8242 11.702 12.0143 12.1432 12.1025 11.7767 12.0753 11.8921 11.8106 11.9328 11.7224 11.8106 11.9192 12.0007 12.1297 12.1025 11.8514 11.9396 11.9057 11.831 11.6613 11.8785 12.0957 11.96 12.0618 12.1568 12.0414 11.8106 11.8989 11.8038 11.6545 11.6681 12.0821 12.0618 12.0821 12.1093 12.0957 11.926 11.8378 11.9057 11.7699 11.6613 12.055 12.1093 12.0821 12.2043 12.0753 11.9328 11.8921 11.8038 11.9057 11.8853 11.8785 12.1704 12.184 12.1568 12.2383 11.9464 11.9396 11.8106 11.7563 11.926 12.1093 11.7971 12.1704 12.1907 12.0753 12.1364 11.9124 11.9057 11.7156 11.8921 12.2043 12.1297 11.8378 12.1704 12.0753 11.8785 11.8989 11.8106 11.7903 11.7903 12.055 12.1636 12.1297 11.9735 12.0482 11.9396 11.8378 11.6749 11.736 11.9803 11.9396 12.0414 12.1297 12.0821 11.8785 11.8989 11.8446 11.7156 11.5934 12.0143 12.0686 12.055 12.0889 12.1636 11.9328 11.8174 11.8921 11.7699 11.5527 12.0007 12.0686 12.0414 12.1636 12.0889 11.9328 11.8785 11.7699 11.8717 11.7088 11.7903 12.1161 12.1161 12.0686 12.2654 11.8921 11.8717 11.7631 11.7088 11.7495 12.0346 11.736 12.1161 12.1229 12.0957 12.0414 11.8785 11.8717 11.6681 11.6545 12.1025 12.0414 11.8242 12.1229 12.1025 11.8581 11.7563 11.8106 11.7971 11.5459 12.0482 12.1364 12.0957 12.021 12.1704 11.9396 11.7767 11.6749 11.7699 11.7088 11.9667 12.0346 12.1025 12.0618 12.0482 11.9532 11.9057 11.6817 11.7495 11.7156 12.0686 12.1297 12.0821 12.1364 12.0753 11.8106 11.9057 11.831 11.5255 11.6817 12.0414 12.0278 12.2247 12.0821 12.1297 11.8514 11.8106 11.8921 11.7767 11.4034 12.0753 12.055 12.0278 12.245 12.0686 11.8581 11.7088 11.736 11.8174 11.6613 11.8106 12.1025 12.0889 12.0686 12.0278 11.8989 11.8378 11.6613 11.6884 11.7563 12.0346 11.8921 12.0889 12.0686 12.0143 11.7156 11.8649 11.8378 11.6477 11.7495 12.1229 12.1025 12.0414 12.15 12.0889 11.7428 11.7292 11.8038 11.7495 11.7292 12.0278 12.1025 12.0957 12.0618 12.1297 11.9396 11.6613 11.8446 11.7767 11.8514 12.1907 12.0753 12.1229 12.0753 11.9871 11.9396 11.8717 11.5052 11.8174 11.9396 12.0957 12.3197 12.1297 12.1772 11.9803 11.8853 11.9532 11.8378 11.4848 11.9871 12.1161 12.0957 12.2111 12.1161 12.0278 11.8106 11.8649 11.9532 11.7903 11.8378 12.1772 12.1568 12.1229 12.021 12.0007 11.8853 11.7428 11.7767 11.8106 12.0482 11.9871 12.1364 12.1297 12.0346 11.8106 11.9192 11.8581 11.7699 11.7292 12.1093 12.0686 12.0278 12.1364 12.1161 11.7428 11.8038 11.831 11.7563 11.7292 12.0414 12.1093 12.0686 12.0346 12.1636 11.9328 11.607 11.8514 11.7699 11.7088 12.2179 12.0482 12.0686 11.9939 12.0278 11.9192 11.8785 11.5052 11.8446 11.7088 12.0753 12.2179 12.1093 12.1432 11.9939 11.8649 11.9192 11.831 11.5663 11.7563 12.0889 12.0482 12.0075 12.1364 12.15 11.831 11.8921 11.9464 11.8174 11.7224 12.1636 12.1297 12.0414 11.9803 12.1297 11.8921 11.8174 11.8106 11.8378 11.7156 12.0482 12.1568 12.1364 11.9532 12.0414 11.96 11.8717 11.926 11.7631 11.831 12.0482 12.0075 12.15 12.1229 11.8106 11.9192 11.8989 11.8446 11.9803 11.8649 12.15 12.0482 12.0821 12.2247 12.0821 11.5866 11.9124 11.8378 11.7767 12.0007 12.0686 12.0753 11.9803 12.0618 12.0686 11.9192 11.6002 11.8649 11.7563 11.926 12.055 12.0821 12.0889 11.9464 11.9532 11.9124 11.8446 11.6409 11.7699 11.9328 12.021 11.9328 12.1093 12.1093 11.8649 11.8581 11.8989 11.7903 11.6884 12.0278 12.0346 11.9057 11.96 12.0821 11.8649 11.8378 11.7835 11.831 11.6681 11.96 12.1364 12.0753 11.8446 12.1432 11.9532 11.8242 11.96 11.736 11.7292 11.9735 11.9803 12.1025 12.055 11.7631 11.9124 11.8853 11.8106 11.9464 11.6681 12.0618 11.96 12.0075 12.1161 12.0686 11.5595 11.8717 11.8038 11.736 11.5798 12.0075 12.0278 11.9192 12.0414 12.1297 11.8785 11.702 11.8581 11.7495 11.6409 11.8446 12.021 12.0007 11.9532 12.021 11.8649 11.8106 11.7224 11.8038 11.6749 11.9124 11.9735 12.0957 12.0821 12.1093 11.8785 11.8785 11.7903 11.6749 11.7767 12.0618 11.8174 12.0957 12.1093 12.0482 12.0618 11.8785 11.8853 11.736 11.7835 12.1704 12.1297 11.7971 12.1772 12.1161 11.8921 12.055 11.8242 11.8174 11.7495 12.055 12.184 12.1364 11.8649 12.1229 11.9803 11.9124 11.9803 11.8038 11.926 12.0007 12.0686 12.2043 12.15 11.8378 11.9803 11.926 11.8717 11.7563 11.926 12.1636 12.0414 12.1364 12.2654 12.1229 11.8581 11.9803 11.8717 11.7631 11.7631 12.1229 12.0957 12.0414 12.1025 12.0618 11.9396 11.8514 11.9396 11.7971 11.8581 12.0278 12.1568 12.1229 12.1093 12.0007 11.9328 11.8649 11.7563 11.831 11.9871 11.8581 12.1093 12.1364 12.1161 12.1093 11.9057 11.9192 11.8038 11.7156 12.0957 12.0889 11.7699 12.1297 12.1364 11.9192 12.055 11.8242 11.8242 11.6341 12.0075 12.184 12.1297 11.8378 12.2179 12.021 11.9192 11.9667 11.8378 11.8038 11.9532 12.0821 12.1975 12.1364 11.96 11.9939 11.9803 11.8989 11.7971 11.8106 12.15 12.0414 12.1568 12.2654 12.2111 11.9057 11.9939 11.926 11.8038 11.6206 12.1568 12.1364 12.1364 12.1907 12.2722 12.0346 11.9328 12.0143 11.9057 11.6749 12.184 12.2043 12.1432 12.3061 12.184 12.021 11.9464 11.8514 11.9464 11.7903 11.8649 12.2315 12.2247 12.2111 12.3944 12.0278 12.0075 11.8785 11.8242 11.8785 12.15 11.8378 12.2179 12.1975 12.1772 12.1093 11.96 11.96 11.7903 11.7903 12.245 12.1907 11.926 12.279 12.2518 11.9871 11.9803 11.9192 11.9057 11.6341 12.1161 12.2247 12.1975 12.055 12.279 12.055 11.9667 11.8106 11.9057 11.8785 12.0889 12.15 12.2518 12.1975 12.1432 12.0346 11.9939 11.8106 11.7428 11.7971 12.1636 12.184 12.2043 12.279 12.2179 11.9667 12.055 11.9667 11.702 11.8106 12.184 12.1432 12.3129 12.184 12.2043 11.9464 11.9192 12.0143 11.8989 11.5663 12.245 12.2315 12.1975 12.4555 12.245 12.021 11.9124 11.8921 11.96 11.7767 11.8581 12.2111 12.2043 12.1975 12.245 12.0482 12.0007 11.8242 11.8581 11.9124 12.1975 12.0346 12.2315 12.2043 12.1364 11.831 11.9464 11.8989 11.7088 11.7835 12.1975 12.1772 12.1432 12.2722 12.2043 11.8378 11.8717 11.9057 11.8378 11.7835 12.1229 12.1636 12.1432 12.0821 12.184 11.96 11.6681 11.926 11.8649 11.8378 12.3197 12.1568 12.2315 12.1704 12.1432 12.0346 11.9735 11.5866 11.8989 11.8106 12.1432 12.3536 12.1704 12.2315 12.0957 11.9667 12.0482 11.9532 11.607 11.9057 12.2247 12.1975 12.3197 12.2179 12.2043 11.8989 11.9464 11.9939 11.8717 11.6952 12.2654 12.2586 12.2518 12.2111 12.2518 12.0482 11.9124 11.9464 11.9871 11.9057 12.0821 12.2518 12.2383 12.1772 12.0278 12.021 11.9871 11.8514 11.8853 12.0278 12.245 12.1704 12.3265 12.2993 12.1161 11.9192 12.021 11.9532 11.8921 11.9667 12.2654 12.2247 12.1704 12.3333 12.2383 11.8174 12.0618 11.9939 11.926 12.1025 12.2383 12.2586 12.1704 12.1772 12.245 12.0346 11.6477 11.9735 11.8717 11.926 12.3469 12.2111 12.245 12.1297 12.1636 12.0753 12.0007 11.6749 11.9328 11.9532 12.1364 12.1229 12.184 12.2043 11.9667 11.9192 11.9871 11.8989 11.736 12.0143 12.2111 12.1297 12.0482 12.2315 12.1093 11.8717 11.8989 11.9464 11.7971 11.9803 12.2043 12.1636 12.021 12.1229 12.0957 11.9667 12.0075 11.8921 11.9124 12.0618 12.1297 12.2586 12.2111 11.926 12.0889 12.0075 11.9192 12.0618 11.8242 12.0618 12.1161 12.1432 12.2993 12.2518 11.8106 12.0414 11.9939 11.9464 12.0278 12.0278 12.184 12.0686 12.1568 12.279 12.0957 11.6952 11.9939 11.926 11.8921 12.1025 12.2179 12.2247 12.1093 12.2179 12.15 12.0278 11.8581 11.9735 11.831 12.0618 12.021 12.1975 12.1975 12.1432 12.0686 12.055 11.9939 11.8989 11.9464 12.2111 12.0889 12.184 12.279 12.2518 12.0889 12.0075 12.0346 11.9192 11.8242 12.2518 12.245 12.0143 12.3061 12.3197 12.0686 12.1772 12.0075 12.0143 11.8038 12.1297 12.279 12.2315 11.8989 12.2993 12.1093 11.9803 12.1432 11.926 11.926 12.1161 12.2043 12.3129 12.2654 11.9667 12.1432 12.0753 11.9939 12.0143 11.8514 12.2043 12.1025 12.1975 12.3061 12.2654 11.8989 12.0889 12.055 11.9735 11.7835 12.2586 12.2722 12.1636 12.2654 12.3536 12.1161 11.9667 12.0889 11.9803 11.8785 12.0957 12.2926 12.3061 12.2586 12.3265 12.1772 12.1161 12.0278 12.1025 11.9192 12.1093 12.2111 12.2993 12.2722 12.3265 12.0686 12.0821 12.0007 11.8853 11.9735 12.2926 12.0075 12.3333 12.3333 12.3061 12.2993 12.0889 12.0753 11.9057 11.8717 12.3333 12.2993 11.9667 12.3401 12.3333 12.1093 12.2722 12.0686 12.0618 11.8106 12.2654 12.3672 12.3197 12.0346 12.3333 12.1229 12.0414 12.0075 11.9667 11.96 12.1229 12.2518 12.3536 12.3333 12.2111 12.184 12.1364 12.0143 11.8581 12.0278 12.3061 12.2315 12.3061 12.3876 12.3129 12.0686 12.1432 12.0414 11.8649 11.9803 12.3469 12.2993 12.4079 12.3265 12.3265 12.1161 12.0143 12.0957 11.9464 11.702 12.2858 12.2858 12.245 12.4894 12.2586 12.0753 11.9803 11.9396 12.021 11.9057 11.9057 12.2858 12.279 12.245 12.3333 12.021 11.9803 11.8174 11.8242 11.9464 12.1568 11.9124 12.2383 12.2383 12.1432 11.9192 11.9464 11.9124 11.6817 11.9057 12.1772 12.1093 12.0007 12.1636 12.055 11.7971 11.6749 11.7699 11.7224 11.7428 12.0075 12.0686 12.0346 11.9803 11.9803 11.831 11.5866 11.6274 11.6002 11.7156 11.9328 11.8853 11.9396 11.8853 11.7292 11.736 11.6613 11.3423 11.5663 11.6884 11.8038 11.9871 11.831 11.8446 11.6545 11.4916 11.5527 11.4373 11.0843 11.5323 11.6681 11.6274 11.8446 11.6613 11.5866 11.3491 11.3287 11.3898 11.2269 11.0708 11.5663 11.5188 11.4712 11.5527 11.383 11.2133 11.0368 11.0368 11.0843 11.1319 11.1183 11.3423 11.288 11.2133 10.9622 10.9757 10.9011 10.6907 10.6567 10.9282 10.935 10.84 10.935 10.8671 10.5685 10.3648 10.4734 10.3852 10.1816 10.4531 10.5413 10.4463 10.3648 10.4191 10.1612 9.80825 9.81504 9.76753 9.66571 9.91686 9.84898 9.8354 9.75395 9.66571 9.55711 9.41456 9.04124 9.21093 9.04124 9.2856 9.38063 9.15663 9.14306 9.00051 8.729 8.72222 8.55931 8.09775 8.2878 8.52537 8.45071 8.60004 8.3421 8.28102 7.9009 7.81266 7.77872 7.57509 7.12032 7.6837 7.58188 7.48685 7.48685 7.33752 7.04565 6.81487 6.77414 6.74699 6.49585 6.5773 6.73342 6.6316 6.50942 6.36688 6.1904 6.00713 5.75598 5.68132 5.64059 5.77635 5.61344 5.67453 5.56593 5.40981 5.05006 5.084 4.93467 4.71746 4.58171 4.90073 4.75819 4.63601 4.65637 4.5342 4.04548 4.03869 3.9776 3.84185 3.70609 3.9233 3.91651 3.80791 3.69931 3.76718 3.43459 3.03411 3.2581 3.10199 2.95944 3.34634 3.13593 3.10877 2.95944 2.91872 2.74903 2.654 2.2128 2.47073 2.30782 2.62006 2.72187 2.51146 2.49788 2.31461 2.12456 2.11098 1.9888 1.56796 1.77838 2.07025 2.01595 1.97523 1.94129 1.92771 1.54081 1.56118 1.56796 1.39827 1.18785 1.66299 1.59511 1.47293 1.35076 1.45936 1.17428 1.03173 1.00458 1.00458 0.800951 1.09282 1.18106 1.12676 0.970644 0.902766 0.834889 0.739861 0.678772 0.543017 0.529442 0.753437 0.678772 0.767012 0.692347 0.3869 0.400475 0.352961 0.271509 0.291872 0.0950281 0.461565 0.339386 0.29866 0.414051 0.32581 -0.257933 0.0271509 -0.0814526 -0.14933 -0.142542 0.0407263 0.0339386 -0.0882403 -0.0950281 -0.00678772 -0.251146 -0.658409 -0.352961 -0.495503 -0.549805 -0.128967 -0.278296 -0.29866 -0.468353 -0.427626 -0.590531 -0.685559 -1.07246 -0.814526 -0.984219 -0.658409 -0.631258 -0.678772 -0.692347 -0.86204 -1.02495 -0.997795 -1.11997 -1.35754 -1.28967 -1.02495 -1.11319 -1.24215 -1.12676 -1.18785 -1.52724 -1.56118 -1.54081 -1.7105 -1.79196 -1.41863 -1.47972 -1.66978 -1.7105 -1.62226 -1.92771 -2.01595 -2.13813 -2.17207 -2.38249 -2.10419 -2.05668 -2.13134 -2.45715 -2.20601 -2.43679 -2.53861 -2.50467 -2.77618 -2.81012 -2.59291 -2.66079 -2.57933 -2.67436 -3.08841 -2.99338 -3.05447 -3.16308 -3.12235 -3.40743 -3.05447 -3.18344 -3.16986 -3.08162 -3.16986 -3.7604 -3.46174 -3.54998 -3.61785 -3.63143 -3.43459 -3.44816 -3.58391 -3.5364 -3.46852 -3.72646 -4.07942 -3.78755 -3.88257 -3.89615 -3.60428 -3.5907 -3.58391 -3.71288 -3.62464 -3.7604 -3.82827 -4.03869 -3.88257 -3.97081 -3.69252 -3.7604 -3.59749 -3.58391 -3.68573 -3.77397 -3.69931 -3.79433 -3.85542 -3.79433 -3.46174 -3.60428 -3.52961 -3.39386 -3.40743 -3.56355 -3.60428 -3.57034 -3.68573 -3.70609 -3.25132 -3.24453 -3.46174 -3.14271 -3.10199 -3.29883 -3.19023 -3.33277 -3.28526 -3.44137 -3.06805 -2.91193 -2.92551 -3.21059 -2.85763 -3.01375 -3.04769 -2.89836 -3.10199 -3.02053 -2.80333 -2.71509 -2.59291 -2.61327 -2.91872 -2.74903 -2.77618 -2.83048 -2.79654 -2.93908 -2.53861 -2.66079 -2.55897 -2.44358 -2.47073 -2.8712 -2.61327 -2.68115 -2.73545 -2.91872 -2.43679 -2.40964 -2.50467 -2.40964 -2.35534 -2.59291 -2.69472 -2.58612 -2.69472 -2.81012 -2.54539 -2.3757 -2.34855 -2.33497 -2.32819 -2.49788 -2.56576 -2.64042 -2.56576 -2.73545 -2.58612 -2.42322 -2.3757 -2.38928 -2.3214 -2.61327 -2.62685 -2.71509 -2.79654 -2.72866 -2.42322 -2.73545 -2.40285 -2.40964 -2.42322 -2.51146 -2.70151 -2.72866 -2.91193 -2.94587 -2.51146 -2.57255 -2.92551 -2.54539 -2.55897 -2.79654 -2.68115 -2.88478 -2.89157 -3.17665 -2.73545 -2.64721 -2.70151 -3.0409 -2.69472 -2.93229 -3.01375 -3.00017 -3.1495 -3.18344 -3.01375 -2.92551 -2.82369 -2.87799 -3.02732 -3.04769 -3.10199 -3.2038 -3.35313 -3.35313 -3.02732 -3.1495 -3.07484 -3.00696 -3.07484 -3.3735 -3.28526 -3.36671 -3.52961 -3.69252 -3.16308 -3.16308 -3.21738 -3.21738 -3.14271 -3.40743 -3.50925 -3.46852 -3.59749 -3.86221 -3.38707 -3.32598 -3.33956 -3.28526 -3.35313 -3.52961 -3.5907 -3.67894 -3.59749 -3.77397 -3.69252 -3.35992 -3.35992 -3.3735 -3.25132 -3.60428 -3.62464 -3.75361 -3.79433 -3.74682 -3.46174 -3.78076 -3.39386 -3.38028 -3.36671 -3.44816 -3.61107 -3.61785 -3.80112 -3.80112 -3.36671 -3.40743 -3.67894 -3.33956 -3.34634 -3.58391 -3.61785 -3.63822 -3.63822 -3.869 -3.36671 -3.27168 -3.30562 -3.41422 -3.23774 -3.45495 -3.5907 -3.69931 -3.61785 -3.645 -3.38707 -3.34634 -3.26489 -3.29204 -3.30562 -3.40743 -3.43459 -3.65858 -3.60428 -3.62464 -3.24453 -3.17665 -3.21059 -3.15629 -3.21738 -3.45495 -3.35992 -3.4278 -3.74682 -3.54319 -3.2038 -3.17665 -3.00696 -3.13593 -3.07484 -3.34634 -3.38707 -3.29883 -3.40743 -3.78755 -3.12914 -3.12914 -3.12914 -2.95944 -3.0952 -3.27847 -3.4278 -3.42101 -3.33956 -3.49567 -3.40743 -3.03411 -3.04769 -3.06805 -3.00017 -3.21738 -3.2581 -3.44816 -3.4278 -3.39386 -3.12235 -3.25132 -3.06126 -3.08162 -3.14271 -3.44137 -3.30562 -3.33277 -3.47531 -3.50246 -3.08841 -3.12914 -3.16986 -3.05447 -3.08841 -3.48889 -3.48889 -3.40065 -3.43459 -3.55676 -3.21059 -3.15629 -3.19702 -3.21059 -3.06805 -3.28526 -3.63143 -3.40065 -3.46852 -3.50246 -3.08841 -3.23095 -3.19023 -3.28526 -3.2581 -3.35992 -3.42101 -3.82827 -3.50246 -3.61785 -3.22417 -3.05447 -3.21738 -3.18344 -3.29883 -3.44137 -3.3735 -3.46174 -3.84185 -3.57713 -3.24453 -3.27168 -3.21059 -3.23774 -3.21059 -3.5364 -3.48889 -3.40743 -3.51604 -3.76718 -3.19702 -3.2038 -3.24453 -3.29204 -3.18344 -3.39386 -3.52283 -3.49567 -3.44816 -3.62464 -3.34634 -3.18344 -3.19023 -3.27168 -3.27168 -3.31241 -3.38707 -3.44137 -3.48889 -3.45495 -3.23095 -3.23095 -3.12914 -3.15629 -3.39386 -3.33277 -3.35313 -3.40065 -3.33956 -3.52283 -3.18344 -3.17665 -3.16308 -3.03411 -3.06126 -3.5364 -3.25132 -3.29883 -3.34634 -3.32598 -3.16986 -3.08841 -3.16986 -3.12235 -2.99338 -3.19702 -3.57713 -3.23774 -3.30562 -3.33956 -3.05447 -3.02732 -3.00017 -3.10877 -3.03411 -3.10199 -3.21059 -3.46852 -3.2581 -3.39386 -3.19702 -3.16308 -3.02053 -2.9866 -3.07484 -3.10199 -3.1495 -3.22417 -3.35992 -3.27847 -3.13593 -3.12235 -3.16308 -2.99338 -2.97981 -3.1495 -3.23774 -3.21059 -3.32598 -3.39386 -3.14271 -2.9866 -3.18344 -3.00696 -2.95944 -3.0409 -3.0952 -3.23774 -3.25132 -3.4278 -3.27847 -2.9866 -3.01375 -3.35992 -2.9866 -3.06805 -3.21738 -3.08841 -3.29204 -3.29204 -3.35992 -3.07484 -2.96623 -2.99338 -3.31241 -3.05447 -3.21059 -3.27168 -3.23095 -3.38707 -3.28526 -3.19702 -3.08841 -2.97302 -2.9866 -3.26489 -3.16986 -3.22417 -3.29204 -3.41422 -3.26489 -3.03411 -3.15629 -3.06126 -2.97981 -3.08162 -3.34634 -3.23095 -3.31919 -3.40743 -3.40065 -3.01375 -3.00017 -3.05447 -3.02053 -3.04769 -3.19023 -3.27847 -3.23095 -3.3735 -3.33277 -3.12235 -3.00696 -2.99338 -2.96623 -3.08162 -3.15629 -3.21738 -3.29204 -3.22417 -3.16308 -3.21059 -2.93908 -2.90514 -2.90514 -2.91872 -3.1495 -3.1495 -3.27847 -3.33956 -3.12235 -2.95944 -3.26489 -2.8712 -2.85763 -2.93908 -2.91872 -3.12235 -3.12914 -3.32598 -3.15629 -2.85763 -2.89157 -3.21059 -2.83048 -2.91193 -3.0952 -3.04769 -3.18344 -3.18344 -3.18344 -2.89836 -2.80333 -2.8169 -3.00696 -2.85763 -2.9866 -3.08162 -3.22417 -3.2038 -3.01375 -2.97302 -2.89157 -2.77618 -2.8169 -2.97981 -2.97981 -3.02732 -3.17665 -3.27847 -3.04769 -2.83048 -2.84405 -2.81012 -2.73545 -2.8712 -3.06805 -2.99338 -3.0952 -3.35313 -3.10199 -2.82369 -2.8169 -2.7083 -2.78296 -2.8169 -3.02053 -3.08841 -3.00017 -3.12914 -3.31241 -2.77618 -2.78296 -2.79654 -2.62006 -2.83727 -3.01375 -3.12235 -3.16308 -3.07484 -3.11556 -3.1495 -2.7626 -2.75581 -2.77618 -2.70151 -2.97981 -2.9866 -3.17665 -3.18344 -3.04769 -2.82369 -3.03411 -2.75581 -2.78296 -2.85084 -3.07484 -3.01375 -3.0409 -3.23095 -3.0952 -2.74903 -2.78296 -2.8712 -2.7083 -2.78296 -3.06805 -3.16986 -3.04769 -3.08162 -3.21738 -2.83048 -2.74903 -2.76939 -2.80333 -2.70151 -2.89836 -3.12914 -3.08841 -3.05447 -3.03411 -2.71509 -2.77618 -2.71509 -2.77618 -2.83048 -2.89836 -2.95266 -3.31919 -3.02732 -3.07484 -2.72187 -2.54539 -2.69472 -2.64721 -2.7626 -2.93229 -2.85084 -2.94587 -3.33277 -3.03411 -2.7083 -2.70151 -2.55218 -2.69472 -2.7083 -2.99338 -2.95266 -2.8712 -2.99338 -3.22417 -2.64721 -2.64721 -2.68115 -2.68794 -2.64721 -2.8712 -3.00017 -2.97302 -2.92551 -3.08162 -2.79654 -2.64721 -2.66079 -2.73545 -2.78296 -2.81012 -2.86442 -2.96623 -2.97981 -2.92551 -2.66079 -2.7083 -2.60648 -2.63363 -2.81012 -2.93908 -2.85084 -2.89157 -2.94587 -3.02053 -2.60648 -2.654 -2.67436 -2.53861 -2.57933 -3.0409 -2.83727 -2.8712 -2.91872 -2.93908 -2.67436 -2.63363 -2.69472 -2.69472 -2.5997 -2.79654 -3.15629 -2.83727 -2.91193 -2.89836 -2.43679 -2.5997 -2.55218 -2.64042 -2.5997 -2.74224 -2.78975 -3.19023 -2.86442 -2.95944 -2.60648 -2.49109 -2.58612 -2.55218 -2.66757 -2.78296 -2.71509 -2.81012 -3.0952 -2.8712 -2.55218 -2.58612 -2.62685 -2.54539 -2.53182 -2.86442 -2.81012 -2.75581 -2.86442 -2.99338 -2.49788 -2.52503 -2.57933 -2.63363 -2.4843 -2.7083 -2.79654 -2.8169 -2.78296 -2.95266 -2.60648 -2.51146 -2.52503 -2.70151 -2.62685 -2.70151 -2.73545 -2.72187 -2.82369 -2.78975 -2.53861 -2.56576 -2.43 -2.45037 -2.74224 -2.68794 -2.7083 -2.76939 -2.72187 -2.92551 -2.52503 -2.61327 -2.61327 -2.45037 -2.4843 -3.00696 -2.68115 -2.75581 -2.77618 -2.74903 -2.52503 -2.49109 -2.5997 -2.55897 -2.45037 -2.68794 -3.06805 -2.73545 -2.83048 -2.85763 -2.44358 -2.51146 -2.4843 -2.60648 -2.52503 -2.66757 -2.69472 -3.00696 -2.78975 -2.91872 -2.57255 -2.61327 -2.52503 -2.51824 -2.64042 -2.74903 -2.70151 -2.7626 -2.89157 -2.82369 -2.49788 -2.59291 -2.62006 -2.45715 -2.47073 -2.7626 -2.7626 -2.72187 -2.85084 -2.92551 -2.51146 -2.53861 -2.72866 -2.57933 -2.46394 -2.69472 -2.64042 -2.7626 -2.73545 -2.94587 -2.56576 -2.44358 -2.49109 -2.78975 -2.44358 -2.64042 -2.71509 -2.59291 -2.83048 -2.82369 -2.58612 -2.53861 -2.40964 -2.45037 -2.78975 -2.60648 -2.64042 -2.70151 -2.62685 -2.8712 -2.50467 -2.60648 -2.53182 -2.42322 -2.45715 -2.92551 -2.63363 -2.67436 -2.72187 -2.79654 -2.52503 -2.45037 -2.56576 -2.45715 -2.35534 -2.57255 -2.79654 -2.67436 -2.7626 -2.87799 -2.69472 -2.47752 -2.4843 -2.51824 -2.44358 -2.51824 -2.62685 -2.72866 -2.66757 -2.78975 -2.68115 -2.53182 -2.43 -2.43 -2.41643 -2.57255 -2.62685 -2.7083 -2.79654 -2.72866 -2.53182 -2.71509 -2.40285 -2.38928 -2.39606 -2.41643 -2.62006 -2.61327 -2.7626 -2.83727 -2.45037 -2.43679 -2.7626 -2.3757 -2.3757 -2.55897 -2.47073 -2.64721 -2.64042 -2.85763 -2.53861 -2.33497 -2.39606 -2.68794 -2.30782 -2.46394 -2.62685 -2.60648 -2.72187 -2.72187 -2.69472 -2.47073 -2.38249 -2.40964 -2.56576 -2.45037 -2.53861 -2.66757 -2.79654 -2.72866 -2.51146 -2.4843 -2.41643 -2.34855 -2.38928 -2.50467 -2.54539 -2.59291 -2.79654 -2.85084 -2.62006 -2.38249 -2.38928 -2.36213 -2.30104 -2.42322 -2.60648 -2.52503 -2.63363 -2.91872 -2.62006 -2.38249 -2.40285 -2.28746 -2.36891 -2.43679 -2.62006 -2.66079 -2.57933 -2.70151 -2.8169 -2.32819 -2.32819 -2.33497 -2.13134 -2.43 -2.55897 -2.68115 -2.69472 -2.64721 -2.49109 -2.72187 -2.35534 -2.34855 -2.32819 -2.3214 -2.53182 -2.54539 -2.73545 -2.73545 -2.42322 -2.35534 -2.61327 -2.31461 -2.31461 -2.46394 -2.58612 -2.59291 -2.5997 -2.84405 -2.52503 -2.28746 -2.3214 -2.3757 -2.21958 -2.34855 -2.57933 -2.66079 -2.57933 -2.61327 -2.55897 -2.34855 -2.27389 -2.33497 -2.34855 -2.36891 -2.49788 -2.72866 -2.62685 -2.62685 -2.47752 -2.24673 -2.31461 -2.25352 -2.30782 -2.40285 -2.46394 -2.51824 -2.89836 -2.62006 -2.57255 -2.34176 -2.16528 -2.30782 -2.24673 -2.41643 -2.53861 -2.45037 -2.57255 -2.93229 -2.46394 -2.28746 -2.29425 -2.17886 -2.28746 -2.38249 -2.62006 -2.57933 -2.52503 -2.68794 -2.77618 -2.28067 -2.28746 -2.29425 -2.23316 -2.35534 -2.4843 -2.63363 -2.60648 -2.57255 -2.46394 -2.47073 -2.28067 -2.30104 -2.34176 -2.56576 -2.51824 -2.54539 -2.67436 -2.66079 -2.38249 -2.30104 -2.34176 -2.21958 -2.22637 -2.53182 -2.61327 -2.53182 -2.57933 -2.654 -2.55218 -2.29425 -2.34855 -2.3757 -2.2128 -2.34176 -2.74903 -2.50467 -2.55897 -2.5997 -2.38928 -2.30782 -2.27389 -2.34855 -2.35534 -2.34176 -2.49109 -2.87799 -2.55218 -2.67436 -2.51824 -2.13813 -2.28746 -2.25352 -2.35534 -2.34855 -2.41643 -2.47752 -2.83727 -2.55897 -2.53861 -2.30104 -2.28746 -2.27389 -2.2671 -2.45037 -2.52503 -2.47073 -2.54539 -2.71509 -2.42322 -2.23995 -2.30782 -2.36891 -2.21958 -2.30782 -2.55218 -2.53182 -2.49788 -2.654 -2.55897 -2.23316 -2.28067 -2.42322 -2.36891 -2.28067 -2.45037 -2.45715 -2.55218 -2.53182 -2.56576 -2.31461 -2.20601 -2.25352 -2.49788 -2.33497 -2.46394 -2.51146 -2.45715 -2.64721 -2.53861 -2.34855 -2.34176 -2.20601 -2.21958 -2.5997 -2.43 -2.46394 -2.51146 -2.45037 -2.57255 -2.28746 -2.3757 -2.34855 -2.20601 -2.28746 -2.83727 -2.47073 -2.53182 -2.55218 -2.4843 -2.26031 -2.24673 -2.35534 -2.2671 -2.19922 -2.43 -2.72187 -2.47752 -2.59291 -2.58612 -2.35534 -2.28746 -2.2671 -2.38928 -2.27389 -2.40285 -2.44358 -2.61327 -2.50467 -2.55897 -2.31461 -2.38249 -2.23995 -2.23995 -2.36891 -2.4843 -2.45037 -2.55218 -2.64721 -2.57933 -2.27389 -2.42322 -2.33497 -2.19922 -2.23316 -2.42322 -2.47752 -2.43679 -2.58612 -2.64042 -2.21958 -2.26031 -2.51146 -2.23995 -2.23995 -2.46394 -2.36213 -2.51824 -2.49788 -2.67436 -2.29425 -2.17886 -2.2128 -2.53861 -2.2128 -2.40285 -2.47073 -2.34176 -2.57933 -2.55218 -2.3757 -2.30782 -2.20601 -2.23995 -2.54539 -2.39606 -2.41643 -2.46394 -2.43679 -2.62006 -2.21958 -2.34176 -2.2671 -2.18565 -2.23316 -2.68794 -2.43679 -2.49788 -2.57255 -2.7626 -2.28746 -2.26031 -2.36213 -2.25352 -2.18565 -2.42322 -2.55218 -2.43 -2.54539 -2.67436 -2.41643 -2.2671 -2.2671 -2.28746 -2.2671 -2.42322 -2.49109 -2.55218 -2.47073 -2.62006 -2.43679 -2.30782 -2.22637 -2.22637 -2.18565 -2.43 -2.43 -2.52503 -2.62685 -2.55897 -2.2671 -2.53861 -2.23995 -2.21958 -2.19922 -2.26031 -2.41643 -2.41643 -2.57255 -2.64042 -2.19243 -2.2128 -2.55897 -2.19243 -2.18565 -2.40285 -2.29425 -2.49109 -2.49788 -2.74903 -2.33497 -2.18565 -2.20601 -2.53182 -2.13134 -2.32819 -2.41643 -2.36213 -2.51146 -2.53861 -2.38249 -2.28067 -2.19243 -2.22637 -2.44358 -2.36891 -2.41643 -2.49788 -2.57255 -2.58612 -2.20601 -2.32819 -2.22637 -2.13134 -2.16528 -2.47752 -2.3757 -2.45037 -2.56576 -2.74903 -2.22637 -2.23316 -2.30782 -2.23316 -2.13813 -2.36891 -2.47073 -2.3757 -2.49109 -2.66757 -2.34855 -2.19243 -2.2128 -2.21958 -2.21958 -2.3757 -2.45715 -2.54539 -2.47073 -2.64042 -2.4843 -2.23316 -2.19243 -2.19243 -2.08383 -2.38249 -2.38928 -2.50467 -2.57933 -2.51824 -2.23316 -2.54539 -2.22637 -2.2128 -2.20601 -2.27389 -2.47752 -2.46394 -2.5997 -2.64042 -2.19243 -2.2128 -2.54539 -2.15171 -2.14492 -2.36891 -2.3214 -2.47073 -2.49109 -2.74224 -2.30782 -2.18565 -2.2128 -2.40964 -2.13134 -2.30104 -2.40964 -2.47752 -2.47073 -2.49788 -2.3757 -2.2128 -2.12456 -2.18565 -2.26031 -2.30782 -2.3757 -2.53182 -2.64042 -2.57933 -2.27389 -2.26031 -2.20601 -2.11777 -2.15171 -2.36891 -2.32819 -2.40285 -2.62006 -2.654 -2.23316 -2.20601 -2.16528 -2.2128 -2.13813 -2.39606 -2.49788 -2.38928 -2.4843 -2.79654 -2.19243 -2.16528 -2.17886 -1.99559 -2.15171 -2.28746 -2.45037 -2.49788 -2.40964 -2.56576 -2.60648 -2.18565 -2.19243 -2.19243 -1.99559 -2.29425 -2.36213 -2.49109 -2.51824 -2.45715 -2.27389 -2.45037 -2.12456 -2.15849 -2.17207 -2.29425 -2.38928 -2.40964 -2.59291 -2.56576 -2.30782 -2.19922 -2.34855 -2.12456 -2.11098 -2.25352 -2.47752 -2.39606 -2.41643 -2.66079 -2.43679 -2.16528 -2.2128 -2.3214 -2.13134 -2.23316 -2.49109 -2.59291 -2.47073 -2.4843 -2.47073 -2.2128 -2.14492 -2.18565 -2.20601 -2.19922 -2.34855 -2.57255 -2.59291 -2.55897 -2.40964 -2.23995 -2.23995 -2.17207 -2.20601 -2.28746 -2.3214 -2.3757 -2.66079 -2.53861 -2.3757 -2.17886 -2.07025 -2.17886 -2.13134 -2.28067 -2.45037 -2.36213 -2.45715 -2.81012 -2.41643 -2.17886 -2.17207 -1.98201 -2.13134 -2.18565 -2.43 -2.43 -2.34855 -2.50467 -2.74224 -2.16528 -2.17207 -2.18565 -2.01595 -2.2128 -2.38249 -2.51824 -2.50467 -2.42322 -2.40964 -2.43 -2.11777 -2.12456 -2.13813 -2.20601 -2.34176 -2.3757 -2.55897 -2.54539 -2.35534 -2.18565 -2.32819 -2.13813 -2.13813 -2.25352 -2.47073 -2.36213 -2.38249 -2.5997 -2.38928 -2.11098 -2.14492 -2.19243 -2.07704 -2.17886 -2.49109 -2.51146 -2.43679 -2.46394 -2.47752 -2.19243 -2.11098 -2.13134 -2.15849 -2.12456 -2.29425 -2.56576 -2.43679 -2.47073 -2.42322 -2.10419 -2.17886 -2.13134 -2.17886 -2.23316 -2.30782 -2.36213 -2.72187 -2.43679 -2.41643 -2.13134 -1.9888 -2.13134 -2.07704 -2.23995 -2.36891 -2.3214 -2.42322 -2.80333 -2.3757 -2.15849 -2.17207 -1.99559 -2.14492 -2.19922 -2.43 -2.41643 -2.33497 -2.49788 -2.62006 -2.0974 -2.10419 -2.12456 -2.06347 -2.17886 -2.34176 -2.47752 -2.47073 -2.42322 -2.40285 -2.31461 -2.08383 -2.09062 -2.13134 -2.30782 -2.30104 -2.34176 -2.46394 -2.47752 -2.31461 -2.15171 -2.2128 -2.09062 -2.11777 -2.31461 -2.4843 -2.38249 -2.39606 -2.4843 -2.40285 -2.0974 -2.13813 -2.17886 -2.02953 -2.12456 -2.54539 -2.36891 -2.40285 -2.44358 -2.30782 -2.17886 -2.13134 -2.17886 -2.19922 -2.13134 -2.30104 -2.66757 -2.34855 -2.45037 -2.38249 -1.96844 -2.12456 -2.0974 -2.2128 -2.19922 -2.28746 -2.35534 -2.73545 -2.43 -2.47073 -2.15849 -2.02274 -2.10419 -2.07704 -2.23995 -2.35534 -2.28746 -2.3757 -2.64042 -2.35534 -2.12456 -2.15849 -2.20601 -2.11777 -2.17207 -2.45715 -2.41643 -2.35534 -2.49788 -2.44358 -2.07704 -2.0974 -2.20601 -2.22637 -2.14492 -2.30782 -2.40285 -2.45037 -2.42322 -2.44358 -2.19922 -2.10419 -2.13813 -2.34855 -2.28746 -2.30782 -2.35534 -2.35534 -2.4843 