0
0
0
0
0
0
0
0
0
0
0
0
0
0
0
0
0
0
0
0
0
0
0
0
0
0
0
0
0
0
0
0
0
0
0
0
0
0
0
0
0
0
0
0
0
0
0
0
0
0
0
0
0
0
0
0
0
0
0
0
0
0
0
0
0
0
0
0
0
0
0
0
0
0
0
0
0
0
0
0
0
0
0
0
0
0
0
0
0
0
0
0
0
0
0
0
0
0
0
0
0
0
0
0
0
0
0
0
0
0
0
0
0
0
0
0
0
0
0
0
0
0
0
0
0
0
0
0
0
0
0
0
0
0
0
0
0
0
0
0
0
0
0
0
0
0
0
0
0
0
0
0
0
0
0
0
0
0
0
0
0
0
0
0
0
0
0
0
0
0
0
0
0
0
0
0
0
0
0
0
0
0
0
0
0
0
0
0
0
0
0
0
0
0
0
0
0
0
0
0
0
0
0
0
0
0
0
0
0
0
0
0
0
0
0
0
0
0
0
0
0
0
0
0
0
0
0
0
0
0
0
0
0
0
0
0
0
0
0
0
0
0
0
0
0
0
0
0
0
0
0
0
0
0
0
0
0
0
0
0
0
0
0
0
0
0
0
0
0
0
0
0
0
0
0
0
0
0
0
0
0
0
0
0
0
0
0
0
0
0
0
0
0
0
0
0
0
0
0
0
0
0
0
0
0
0
0
0
0
0
0
0
0
0
0
0
0
0
0
0
0
0
0
0
0
0
0
0
0
0
0
0
0
0
0
0
0
0
0
0
0
0
0
0
0
0
0
0
0
0
0
0
0
0
0
0
0
0
0
0
0
0
0
0
0
0
0
0
0
0
0
0
0
0
0
0
0
0
0
0
0
0
0
0
0
0
0
0
0
0
0
0
0
0
0
0
0
0
0
0
0
0
0
0
0
0
0
0
0
0
0
0
0
0
0
0
0
0
0
0
0
0
0
0
0
0
0
0
0
0
0
0
0
0
0
0
0
0
0
0
0
0
0
0
0
0
0
0
0
0
0
0
0
0
0
0
0
0
0
0
0
0
0
0
0
0
0
0
0
0
0
0
0
5.04E-06
-2.01E-06
5.04E-06
-3.89E-05
-2.18E-05
-2.42E-05
-3.36E-07
5.20E-05
-2.22E-05
-1.34E-05
3.36E-06
-3.36E-07
-2.69E-06
6.71E-07
6.71E-07
6.71E-07
2.35E-06
-4.36E-06
-4.36E-06
2.01E-06
-4.36E-06
-3.36E-07
-3.36E-07
-3.36E-07
0
0
0
-1.34E-06
-3.36E-07
1.01E-06
1.01E-06
2.35E-06
-6.71E-07
-6.71E-07
-1.01E-06
-1.01E-06
3.36E-07
3.36E-07
-3.36E-07
0
0
-6.71E-07
-6.71E-07
4.36E-06
4.36E-06
6.71E-07
3.69E-06
3.36E-06
-6.71E-07
-6.71E-07
-3.36E-07
0
8.39E-06
8.39E-06
-3.02E-06
-1.28E-05
-1.95E-05
-1.95E-05
2.69E-06
-4.06E-05
-4.06E-05
1.04E-05
5.81E-05
1.01E-06
1.01E-06
3.96E-05
1.58E-05
3.83E-05
3.83E-05
-5.61E-05
-5.61E-05
-1.78E-05
-1.78E-05
-3.12E-05
0.000123201
-1.24E-05
-7.25E-05
-7.25E-05
-2.55E-05
6.95E-05
6.95E-05
4.60E-05
-0.000101717
-0.000101717
-4.36E-06
-3.42E-05
-9.70E-05
0.000183627
0.000183627
1.51E-05
7.49E-05
7.49E-05
-2.05E-05
-0.000150729
0.000118502
0.000118502
-2.99E-05
-0.000309178
-0.000309178
2.35E-06
2.35E-06
3.12E-05
3.12E-05
-9.57E-05
-3.69E-06
-5.87E-05
-0.000163485
-0.000163485
-2.45E-05
-9.20E-05
-9.20E-05
0.00019202
-0.000127901
-9.47E-05
-9.47E-05
-8.16E-05
5.61E-05
5.61E-05
-3.63E-05
-3.63E-05
-6.24E-05
-6.24E-05
-4.67E-05
2.95E-05
0.000200412
0.000165499
0.000165499
-1.78E-05
0.000164828
-0.000119844
-0.000119844
-9.30E-05
-5.14E-05
-2.82E-05
-1.75E-05
-1.75E-05
-3.56E-05
-7.42E-05
-7.42E-05
-4.93E-05
-4.93E-05
-0.000129244
5.61E-05
9.74E-05
-2.89E-05
-2.89E-05
0.000157107
6.55E-05
0.000512612
0.000512612
5.00E-05
-0.000174228
-1.91E-05
-3.79E-05
0.000127901
0.000129915
-0.000154757
-4.20E-05
-4.20E-05
-5.71E-06
-9.97E-05
-6.88E-05
-5.64E-05
-3.12E-05
-3.49E-05
-0.000182284
-0.000182284
-0.000100038
0.000103731
-4.33E-05
-0.0001608
-1.01E-06
0.000167178
0.000167178
-9.33E-05
-9.33E-05
0.000221225
1.01E-05
-0.000282322
0.000419959
0.000419959
-2.92E-05
-2.92E-05
5.14E-05
0.000308843
6.58E-05
-0.000115145
-0.000115145
0.000118837
-0.000118837
-3.32E-05
0.000111788
9.57E-05
9.74E-06
8.06E-06
8.06E-06
-3.02E-06
0.000132601
-2.38E-05
-2.38E-05
-3.02E-05
0.00018027
0.00018027
6.04E-06
6.04E-06
-3.36E-06
-3.36E-06
8.56E-05
-9.74E-06
5.04E-06
-0.000152071
-0.000152071
-4.36E-06
-2.01E-06
-3.36E-07
-3.36E-07
-3.69E-06
4.36E-06
3.69E-06
3.52E-05
3.52E-05
-2.35E-06
-1.01E-06
-1.01E-06
-1.11E-05
-8.39E-06
3.36E-07
3.36E-07
-7.39E-06
-7.39E-06
5.04E-06
3.36E-06
-1.68E-06
1.44E-05
1.44E-05
-1.01E-06
3.02E-06
-1.34E-06
5.04E-06
3.36E-07
1.51E-05
1.51E-05
-6.04E-06
-3.36E-06
-3.02E-06
5.04E-06
3.36E-07
-2.35E-06
2.01E-06
2.01E-06
2.35E-06
1.24E-05
-4.36E-06
-4.36E-06
-4.70E-06
-1.01E-06
5.04E-06
5.04E-06
-3.36E-07
2.11E-05
-3.36E-06
-3.36E-06
-1.44E-05
5.04E-06
5.04E-06
6.04E-06
3.02E-06
3.02E-06
-6.71E-07
-6.71E-07
4.70E-06
-1.17E-05
-1.17E-05
-3.66E-05
-1.41E-05
-6.71E-06
-3.02E-06
1.01E-06
2.65E-05
-4.36E-06
-4.36E-06
-7.05E-06
-6.38E-06
-1.01E-06
-3.56E-05
-3.56E-05
-1.04E-05
-1.04E-05
2.05E-05
6.28E-05
0.000132265
-1.71E-05
-1.71E-05
-5.91E-05
-8.09E-05
1.95E-05
1.95E-05
7.99E-05
1.48E-05
1.48E-05
3.69E-06
-4.50E-05
9.06E-06
-3.59E-05
-3.59E-05
-0.000109102
-2.38E-05
-2.38E-05
-1.91E-05
4.26E-05
3.83E-05
-1.17E-05
-1.98E-05
-2.28E-05
-2.28E-05
-0.000101717
-0.000101717
4.06E-05
4.06E-05
-6.28E-05
-1.38E-05
0.000128573
-0.0003122
-0.0003122
-0.00012018
-0.00012018
-0.000103395
0.000317907
3.16E-05
3.59E-05
3.59E-05
-1.78E-05
0.000108431
-3.42E-05
-3.42E-05
0.000234318
-5.61E-05
0.000218875
0.000218875
0.000148714
7.49E-05
7.49E-05
0.000123201
0.000123201
-4.40E-05
-4.40E-05
-8.22E-05
3.49E-05
-3.12E-05
1.95E-05
1.95E-05
1.68E-06
3.86E-05
6.14E-05
6.14E-05
0.000347112
-8.39E-06
-8.39E-06
0.000137301
-2.58E-05
-2.58E-05
-4.93E-05
3.32E-05
3.56E-05
-4.23E-05
-2.25E-05
4.50E-05
4.50E-05
-6.81E-05
-6.81E-05
-6.81E-05
4.46E-05
-1.38E-05
-9.06E-06
2.75E-05
2.75E-05
-1.48E-05
-1.48E-05
-5.94E-05
-4.40E-05
-4.40E-05
-4.57E-05
-4.57E-05
-0.000174899
-0.000131258
7.59E-05
3.29E-05
3.29E-05
9.06E-06
9.06E-06
-1.58E-05
-1.58E-05
-8.06E-06
-8.46E-05
-3.99E-05
-0.000114473
-1.01E-05
3.73E-05
3.76E-05
2.32E-05
7.05E-06
1.14E-05
-4.33E-05
-4.33E-05
0.0001608
-9.50E-05
6.48E-05
-9.97E-05
-0.000146365
-0.000146365
-4.70E-06
-8.49E-05
-8.49E-05
-4.60E-05
4.06E-05
1.95E-05
-6.38E-06
1.17E-05
-1.11E-05
-1.11E-05
8.16E-05
3.12E-05
-0.000207126
-6.11E-05
-9.06E-06
-0.000108431
-0.000198398
-0.000198398
0.000106081
4.36E-06
4.36E-06
0.000593179
0.000593179
-0.000132265
-0.000132265
0.000312535
-0.000209476
-9.67E-05
1.68E-06
3.46E-05
1.04E-05
-5.81E-05
-5.81E-05
-0.000102388
-4.33E-05
0.000126223
0.000180942
0.000180942
-8.12E-05
5.24E-05
5.24E-05
-0.000128237
-4.97E-05
-8.02E-05
-3.02E-06
-3.02E-06
0.000137301
0.000137301
6.04E-06
6.04E-06
-5.27E-05
-5.27E-05
0.000234653
-6.75E-05
-6.75E-05
-8.36E-05
-8.36E-05
-7.22E-05
-7.22E-05
-1.14E-05
-0.0001467
0.000106081
-0.000125887
-0.000125887
-0.000139315
-2.48E-05
-9.43E-05
0.000222568
-5.94E-05
0.00024036
-6.21E-05
-6.21E-05
-0.000188327
-0.000116152
-0.000116152
2.11E-05
2.11E-05
0.000202426
0.000202426
-0.000105745
2.32E-05
2.32E-05
1.28E-05
1.28E-05
-3.69E-06
0.000227939
-0.000102388
-4.36E-06
-4.33E-05
0.000231632
0.000231632
-5.81E-05
-6.55E-05
-1.51E-05
-7.72E-06
-3.99E-05
-9.97E-05
-2.48E-05
-2.48E-05
6.18E-05
-3.19E-05
-3.19E-05
-0.000134615
-0.000134615
-2.11E-05
-2.11E-05
2.92E-05
-7.45E-05
-7.45E-05
0.00010071
0.00010071
2.01E-05
2.01E-05
-0.000135622
-3.89E-05
2.11E-05
-6.78E-05
-6.78E-05
4.06E-05
-1.51E-05
-1.51E-05
5.94E-05
5.94E-05
-9.74E-06
-9.74E-06
-0.000101717
-6.61E-05
-3.12E-05
-0.000107759
-0.000107759
-9.70E-05
-7.96E-05
-3.79E-05
-3.79E-05
-3.02E-06
-2.25E-05
-0.000100038
-0.000100038
0.000150057
-0.000117159
-0.000232639
-5.98E-05
-0.00017322
7.05E-06
7.05E-06
-4.20E-05
5.57E-05
5.57E-05
-7.15E-05
-7.15E-05
3.32E-05
3.32E-05
-6.14E-05
8.39E-06
2.92E-05
3.63E-05
3.63E-05
0.000250095
1.68E-06
-0.000180942
-0.000180942
-0.000149722
-0.000149722
2.99E-05
2.99E-05
-1.64E-05
-0.00020914
-0.00020914
-1.98E-05
8.96E-05
-1.64E-05
-1.64E-05
-6.75E-05
6.41E-05
6.41E-05
-1.68E-05
-1.68E-05
-4.93E-05
-4.93E-05
-1.68E-06
2.25E-05
1.01E-05
-0.000330999
-0.000330999
-1.48E-05
-0.000123201
-4.50E-05
-4.50E-05
-2.45E-05
0.000195712
0.000195712
-4.80E-05
-1.78E-05
-7.82E-05
-7.82E-05
-2.32E-05
0.000137972
-1.54E-05
-1.54E-05
2.48E-05
5.87E-05
5.87E-05
7.49E-05
7.49E-05
3.05E-05
3.05E-05
7.08E-05
-4.93E-05
0.000368597
-3.19E-05
-3.19E-05
-1.88E-05
-1.88E-05
-4.87E-05
-8.22E-05
-2.82E-05
0.000219211
0.000219211
-4.87E-05
-1.41E-05
2.82E-05
-2.35E-05
-2.35E-05
-0.000213504
-0.000213504
2.28E-05
0.000107759
-4.67E-05
-3.42E-05
-3.42E-05
0.000148379
1.98E-05
5.47E-05
5.47E-05
-6.01E-05
-7.39E-05
-7.39E-05
-0.000190341
-0.000190341
3.52E-05
-3.66E-05
-3.66E-05
0.000335363
0.000335363
-9.97E-05
-8.49E-05
-3.26E-05
-6.38E-06
-6.38E-06
-2.32E-05
1.78E-05
0.000101045
0.000101045
-5.47E-05
6.78E-05
3.36E-07
3.36E-07
-2.38E-05
-0.000201755
-0.000201755
2.65E-05
2.65E-05
-1.68E-06
-1.68E-06
-8.39E-06
-7.35E-05
5.04E-06
-0.000157443
-0.000157443
-0.00017557
-0.00017557
-0.000108095
-4.73E-05
0.000248753
4.40E-05
4.40E-05
-2.79E-05
5.67E-05
-0.000140993
-0.000140993
-0.000201755
-3.26E-05
3.02E-06
-0.000283665
-4.10E-05
5.34E-05
5.34E-05
-0.000217197
-1.28E-05
-9.60E-05
-9.60E-05
-2.35E-06
1.01E-06
-3.32E-05
-3.46E-05
-3.46E-05
8.06E-06
8.06E-06
-0.000104402
-5.14E-05
-5.40E-05
-0.000186313
-0.000186313
-3.36E-06
-0.000109438
-0.000109438
-3.12E-05
-3.12E-05
-4.20E-05
0.000542153
0.000542153
-1.58E-05
-4.60E-05
0.000133944
-3.86E-05
0.000109773
-2.11E-05
-2.11E-05
-8.63E-05
7.39E-05
-3.66E-05
2.01E-05
-0.000162814
2.11E-05
-1.01E-05
-1.01E-05
-5.37E-06
-3.69E-06
-3.69E-06
9.37E-05
9.37E-05
-3.19E-05
-3.19E-05
0.000150057
-1.31E-05
-1.98E-05
-4.26E-05
-6.55E-05
-0.00018967
-3.79E-05
-9.40E-05
-8.49E-05
4.50E-05
-5.34E-05
-3.02E-06
-2.01E-05
-4.46E-05
-0.000159457
2.35E-06
2.35E-06
-2.32E-05
-2.32E-05
-1.04E-05
8.73E-06
0.000131594
-5.04E-06
-5.04E-06
-6.14E-05
2.01E-06
0.000257481
-0.000195377
1.85E-05
6.61E-05
6.61E-05
3.66E-05
3.66E-05
3.86E-05
3.86E-05
-0.000218204
-0.000218204
3.36E-06
3.36E-06
6.61E-05
6.61E-05
6.95E-05
6.95E-05
-0.000159793
0.000512612
0.000512612
2.35E-06
2.35E-06
-0.000289708
-0.000289708
-0.000141665
2.79E-05
-3.56E-05
5.34E-05
5.34E-05
0.000177585
0.000251438
-1.51E-05
-1.51E-05
4.50E-05
6.75E-05
-0.000159793
-0.000159793
-7.05E-05
-4.36E-05
-4.36E-05
-4.13E-05
3.66E-05
7.79E-05
-1.14E-05
6.01E-05
-6.48E-05
-6.48E-05
-7.28E-05
-7.28E-05
-1.31E-05
-1.31E-05
-8.09E-05
-8.73E-06
-5.71E-06
4.70E-06
4.70E-06
4.80E-05
1.44E-05
-5.71E-06
-5.71E-06
2.01E-06
1.17E-05
5.71E-06
-8.39E-06
-8.39E-06
-2.25E-05
-2.25E-05
1.01E-06
-3.69E-06
2.65E-05
2.35E-06
2.35E-06
2.01E-06
4.70E-06
4.70E-06
1.68E-06
-2.35E-06
6.71E-07
6.71E-07
-2.35E-06
-3.02E-06
-3.02E-06
1.34E-06
1.34E-06
1.34E-06
1.34E-06
2.01E-06
0
-3.36E-07
-1.01E-06
-1.01E-06
7.39E-06
6.71E-07
6.71E-07
1.01E-06
1.01E-06
-6.38E-06
-6.38E-06
-3.36E-07
1.01E-06
1.01E-06
1.01E-06
1.01E-06
-2.69E-06
-2.69E-06
-1.34E-06
-3.02E-06
0
1.01E-06
1.01E-06
-1.01E-06
-4.70E-06
-4.03E-06
-4.03E-06
2.69E-06
-4.70E-06
2.01E-06
2.01E-06
7.39E-06
-4.70E-06
-4.70E-06
4.36E-06
4.36E-06
3.02E-06
3.02E-06
1.34E-06
-7.72E-06
-7.72E-06
-7.72E-06
-7.72E-06
3.36E-06
3.36E-06
3.69E-06
-1.01E-05
1.31E-05
8.06E-06
8.06E-06
1.68E-05
-5.71E-06
3.39E-05
3.39E-05
-2.35E-06
1.68E-06
-2.01E-06
-2.01E-06
-7.39E-06
3.29E-05
3.29E-05
-6.71E-07
-6.71E-07
3.36E-06
-3.36E-06
-3.36E-06
7.05E-06
7.05E-06
1.58E-05
-3.02E-06
-3.02E-06
-9.40E-06
-1.24E-05
-1.24E-05
-3.59E-05
-3.59E-05
-1.68E-06
9.63E-05
-0.000126558
5.04E-06
5.04E-06
-1.41E-05
-9.06E-06
-2.28E-05
-2.28E-05
-2.48E-05
-3.12E-05
-3.12E-05
0.000113802
-3.26E-05
-0.000101045
-7.72E-06
-7.72E-06
2.08E-05
-4.36E-06
0.000155428
-4.80E-05
4.06E-05
-2.72E-05
-2.72E-05
-7.69E-05
3.02E-06
0.000205448
4.03E-06
4.03E-06
-2.35E-06
9.16E-05
9.16E-05
6.34E-05
-2.18E-05
-5.84E-05
6.11E-05
-7.89E-05
-4.06E-05
-4.06E-05
-2.38E-05
-2.65E-05
-4.03E-06
-0.000106081
8.22E-05
8.22E-05
0.00024741
-4.06E-05
-4.06E-05
-7.89E-05
-3.39E-05
-3.39E-05
9.84E-05
9.84E-05
0.000316228
0.000316228
-5.27E-05
0.000203098
0.000121523
0.000121523
-0.000430365
-6.38E-06
-6.38E-06
-3.93E-05
-3.93E-05
-2.05E-05
-2.05E-05
-0.000116152
1.85E-05
6.04E-06
-5.94E-05
-5.94E-05
-6.08E-05
-0.000150057
-2.62E-05
-2.62E-05
6.48E-05
0.000297765
0.000297765
2.05E-05
-0.00011313
-4.40E-05
-6.48E-05
-0.000245396
6.14E-05
-3.52E-05
-3.52E-05
-3.63E-05
4.77E-05
4.77E-05
-0.000231296
-0.000231296
-9.74E-06
-9.74E-06
-3.26E-05
-0.000319921
-0.000101717
-8.22E-05
-8.22E-05
-4.33E-05
0.000105409
-3.42E-05
-3.42E-05
0.000106752
-0.000101381
-0.000101381
0.000441108
-3.76E-05
-7.82E-05
-7.82E-05
5.47E-05
-0.000146365
-4.77E-05
-4.77E-05
0.000101717
2.22E-05
2.22E-05
-0.000101717
-0.000101717
8.06E-06
8.06E-06
-3.36E-05
9.84E-05
0.000117159
8.63E-05
8.63E-05
-7.59E-05
-7.59E-05
-6.04E-05
-0.000149386
-9.23E-05
-0.000116487
-0.000116487
2.48E-05
-8.19E-05
-2.18E-05
-2.18E-05
7.22E-05
2.05E-05
-1.14E-05
-1.14E-05
0.000162142
4.26E-05
-5.14E-05
-5.14E-05
-1.17E-05
6.71E-07
0.000137972
0.000137972
0.000139315
0.000177585
2.08E-05
2.08E-05
-2.01E-06
-2.01E-06
4.46E-05
1.58E-05
-5.71E-06
-9.10E-05
-9.10E-05
0.000335027
-3.05E-05
-3.05E-05
0.000211826
0.000211826
-2.62E-05
-2.62E-05
-2.32E-05
1.38E-05
-3.46E-05
-2.99E-05
-2.99E-05
-3.05E-05
-0.000215183
2.32E-05
2.32E-05
5.54E-05
-5.24E-05
-0.000165499
-0.000165499
-2.52E-05
1.61E-05
1.61E-05
-2.01E-06
0.000215854
-2.65E-05
-2.65E-05
-2.18E-05
-3.99E-05
-0.000297093
-4.46E-05
-4.46E-05
-2.62E-05
-2.62E-05
6.71E-07
0.000111452
-5.34E-05
0.000152743
0.000152743
-3.09E-05
-3.09E-05
0.000221225
4.06E-05
-6.85E-05
8.69E-05
8.69E-05
0.000177585
-6.01E-05
-0.000134615
-0.000134615
3.26E-05
-6.48E-05
-2.85E-05
-2.85E-05
2.25E-05
-0.000158114
-0.000158114
-0.000142672
1.91E-05
1.91E-05
-0.000154757
-0.000154757
-2.99E-05
-3.26E-05
3.73E-05
3.73E-05
-3.52E-05
-0.000120516
3.99E-05
3.99E-05
0.00041828
4.23E-05
-3.96E-05
-3.96E-05
-6.38E-05
8.02E-05
-6.88E-05
-6.88E-05
0.000103731
-7.39E-06
-7.39E-06
-3.69E-05
1.68E-06
-5.34E-05
-5.34E-05
-5.00E-05
-4.03E-06
-5.27E-05
-5.27E-05
-2.52E-05
-2.65E-05
-2.65E-05
-8.63E-05
-8.63E-05
3.19E-05
3.19E-05
9.74E-05
-5.00E-05
7.05E-06
-1.44E-05
-1.44E-05
2.01E-06
1.95E-05
0.000168185
0.000126894
3.59E-05
5.47E-05
-1.21E-05
-3.52E-05
-0.000106752
5.47E-05
5.47E-05
5.87E-05
-6.95E-05
-6.95E-05
5.24E-05
-8.43E-05
0.000172885
1.85E-05
-1.98E-05
5.34E-05
-6.85E-05
-6.85E-05
0.000207126
-4.40E-05
-4.26E-05
-0.000229954
-0.000229954
-0.00012958
1.28E-05
-5.71E-06
-5.71E-06
-9.06E-06
-0.000140322
-0.000140322
0.000106416
-5.71E-06
0.000127901
0.000127901
-5.07E-05
-2.75E-05
0.000134615
0.000134615
3.73E-05
-0.000117159
-0.000117159
-7.22E-05
-7.22E-05
4.46E-05
4.46E-05
0.000100038
4.80E-05
-8.22E-05
-9.40E-05
-9.40E-05
-7.69E-05
-7.69E-05
-7.05E-05
-8.36E-05
-6.65E-05
3.59E-05
3.59E-05
4.46E-05
4.13E-05
6.38E-05
6.38E-05
0.000221225
0.000105074
5.24E-05
5.24E-05
0.000167178
-5.44E-05
-5.44E-05
0.000112459
0.000112459
-3.05E-05
0.000105745
-0.000196384
-7.28E-05
0.000111116
-3.36E-05
-3.36E-05
-9.16E-05
-9.16E-05
-9.16E-05
-5.40E-05
-2.65E-05
0.000109102
0.000109102
-4.73E-05
-1.81E-05
2.38E-05
-0.000102724
-0.000102724
-9.10E-05
-9.10E-05
-1.24E-05
-4.03E-06
-2.25E-05
1.38E-05
4.36E-06
4.33E-05
0.000111452
-1.64E-05
-1.64E-05
-5.04E-06
1.68E-06
1.68E-06
3.36E-07
6.38E-06
3.02E-06
3.02E-06
-4.03E-06
5.71E-06
-5.71E-06
1.68E-06
6.38E-06
-4.03E-06
-2.01E-06
-2.01E-06
0
8.73E-06
-5.04E-06
-3.36E-07
6.71E-07
3.36E-07
3.36E-07
-4.36E-06
-3.69E-06
-2.35E-06
-3.69E-06
9.74E-06
-1.01E-06
-3.36E-07
-3.36E-07
-3.36E-07
-3.36E-07
2.35E-06
-1.34E-06
-1.34E-06
3.36E-07
-3.02E-06
-8.39E-06
3.69E-06
3.69E-06
-3.36E-07
-3.36E-07
-1.01E-06
-1.68E-06
5.71E-06
-1.68E-06
-1.68E-06
6.71E-07
6.71E-07
3.36E-07
-3.02E-06
-2.35E-06
-9.06E-06
-9.06E-06
4.03E-06
6.38E-06
-2.01E-06
-2.01E-06
-7.72E-06
-4.36E-06
1.68E-06
1.68E-06
6.04E-06
6.04E-06
-5.71E-06
-1.78E-05
9.06E-06
2.35E-06
2.35E-06
-1.51E-05
1.64E-05
1.64E-05
1.04E-05
9.06E-06
9.06E-06
-3.36E-07
2.92E-05
2.92E-05
5.37E-06
5.37E-06
-1.85E-05
-1.71E-05
1.38E-05
-9.40E-06
-9.40E-06
-3.32E-05
5.04E-05
5.04E-05
0.000170871
0.000170871
1.17E-05
1.17E-05
2.55E-05
-7.65E-05
-9.06E-05
-9.06E-05
-1.34E-05
-9.74E-06
-9.74E-06
-0.000110109
-0.000110109
-1.71E-05
-1.71E-05
-2.72E-05
6.38E-06
-1.31E-05
4.60E-05
4.60E-05
6.95E-05
-0.000115145
-0.000115145
-1.31E-05
-1.31E-05
3.32E-05
9.40E-05
-1.38E-05
-1.91E-05
3.46E-05
3.46E-05
5.27E-05
8.66E-05
2.01E-06
2.01E-06
-8.73E-05
-5.77E-05
-5.77E-05
-1.21E-05
-1.21E-05
0.000171542
0.000171542
-0.000106416
1.17E-05
0.000135287
-0.000125216
-0.000125216
-1.38E-05
-4.43E-05
1.44E-05
2.45E-05
0.000245396
-0.000273259
-1.17E-05
-1.17E-05
-4.73E-05
-1.68E-06
-1.68E-06
7.72E-06
-9.87E-05
-0.000140322
4.33E-05
4.67E-05
-3.66E-05
0.000433387
0.000433387
-6.08E-05
0.000257145
0.000257145
-0.000152071
-0.000152071
0.000112459
0.000112459
-5.71E-05
-1.11E-05
-9.03E-05
4.53E-05
4.53E-05
-4.87E-05
2.35E-06
-3.52E-05
-3.52E-05
0.000295079
-5.94E-05
-5.94E-05
6.95E-05
-6.61E-05
0.00041828
0.00041828
-3.83E-05
-0.00018732
-4.26E-05
-4.26E-05
2.38E-05
-4.70E-06
-4.70E-06
-6.55E-05
6.58E-05
-1.85E-05
-1.85E-05
9.97E-05
2.08E-05
0.000409552
-9.33E-05
4.46E-05
4.46E-05
-5.47E-05
-5.47E-05
-4.03E-05
1.04E-05
1.04E-05
-4.53E-05
-4.53E-05
-0.000179934
7.28E-05
7.28E-05
-1.31E-05
4.70E-06
3.05E-05
3.05E-05
9.20E-05
4.23E-05
-0.00029575
1.44E-05
1.44E-05
7.75E-05
7.75E-05
-0.000111116
-1.11E-05
1.38E-05
3.86E-05
-0.000176242
0.000119844
-0.000140322
-0.000140322
4.70E-06
0.000140322
-6.38E-06
8.76E-05
8.76E-05
6.58E-05
6.58E-05
-6.58E-05
-9.57E-05
0.000750286
-0.000130922
-0.000130922
-4.63E-05
-1.61E-05
1.01E-05
-3.39E-05
-0.000185641
-0.000123873
-0.000123873
6.14E-05
6.11E-05
-4.87E-05
-4.87E-05
-0.000265202
4.53E-05
5.04E-05
5.04E-05
-2.11E-05
-7.15E-05
-7.15E-05
1.78E-05
1.78E-05
0.000135287
0.000135287
6.14E-05
-0.000212497
-5.54E-05
2.28E-05
2.28E-05
-6.04E-06
-3.16E-05
-3.16E-05
-0.000176913
-0.000176913
-7.42E-05
-7.42E-05
-0.000109438
-7.86E-05
-1.34E-05
-8.39E-06
-8.39E-06
0.000488441
-6.08E-05
-0.000168185
-0.000168185
-9.10E-05
-1.98E-05
-1.98E-05
9.90E-05
-3.32E-05
-4.26E-05
1.78E-05
1.78E-05
3.99E-05
-4.53E-05
-4.53E-05
-0.000106416
-0.000106416
-1.61E-05
8.69E-05
-9.10E-05
-1.78E-05
-8.39E-05
-8.39E-05
0.00027863
8.39E-06
-3.63E-05
-3.32E-05
-3.32E-05
-6.08E-05
-6.08E-05
9.57E-05
6.71E-07
4.20E-05
4.20E-05
-3.02E-06
2.35E-06
-3.05E-05
-2.85E-05
-7.45E-05
-7.65E-05
0.000219211
0.000174228
-3.79E-05
7.72E-06
1.78E-05
1.78E-05
-2.11E-05
-4.26E-05
5.07E-05
5.07E-05
-0.000231296
4.83E-05
-0.000102388
-5.64E-05
-0.000188663
-7.55E-05
-7.55E-05
-0.000111788
-8.69E-05
-8.39E-06
-7.86E-05
8.96E-05
-4.43E-05
2.35E-05
-1.44E-05
-8.69E-05
-7.35E-05
0.000148043
-9.74E-06
-9.74E-06
-9.16E-05
3.73E-05
-1.78E-05
0.000121187
0.000480385
-2.89E-05
-2.89E-05
3.39E-05
0.000165499
0.000165499
-0.0003028
-1.01E-05
5.40E-05
5.40E-05
0.000421302
1.85E-05
1.85E-05
-9.06E-06
-9.06E-06
-0.00035819
-0.00035819
-4.87E-05
0.000335027
3.96E-05
-0.000166842
-0.000166842
1.31E-05
-0.000128573
-4.93E-05
-4.93E-05
-0.000295079
-3.26E-05
0.000205783
0.000205783
5.87E-05
-1.31E-05
-1.31E-05
-0.000118837
-4.87E-05
-9.30E-05
-9.30E-05
5.27E-05
-0.000385382
-0.000385382
-1.98E-05
-1.98E-05
8.56E-05
8.56E-05
9.10E-05
-0.000112795
5.30E-05
-8.96E-05
-8.96E-05
0.000203433
1.64E-05
0.000102388
0.000102388
0.000448158
-0.00011783
1.44E-05
1.44E-05
0.000144015
-6.38E-05
-6.38E-05
2.05E-05
0.000227939
-4.06E-05
-4.06E-05
-2.99E-05
0.000256138
-3.05E-05
-5.94E-05
-5.94E-05
4.23E-05
-8.63E-05
-8.09E-05
-3.59E-05
5.47E-05
-3.66E-05
-3.66E-05
1.24E-05
1.24E-05
-8.69E-05
-7.65E-05
-0.000188663
3.32E-05
3.32E-05
-3.56E-05
-1.71E-05
-3.05E-05
0.000133608
0.000133608
0.000327306
-3.99E-05
-5.27E-05
-5.27E-05
6.28E-05
-0.000117159
-0.000117159
0.000146029
-0.000140322
0.000128573
-0.000146029
-0.000138979
-2.82E-05
2.25E-05
2.25E-05
0.000277287
-3.05E-05
-3.05E-05
3.46E-05
3.46E-05
-3.12E-05
-1.85E-05
1.91E-05
1.91E-05
-0.00011313
-3.79E-05
0.000139315
-3.26E-05
0.000145357
0.000215518
0.000215518
-9.16E-05
-9.16E-05
-4.46E-05
-4.46E-05
-8.39E-06
-8.69E-05
-8.69E-05
-0.00021854
-0.00021854
-0.000123201
-0.000123201
-1.78E-05
-2.38E-05
-2.38E-05
3.56E-05
3.56E-05
-3.16E-05
-3.16E-05
-0.000128237
3.93E-05
-2.58E-05
1.44E-05
-2.99E-05
-8.53E-05
0.00011313
-1.34E-06
-1.34E-06
-0.000139986
-0.000139986
-0.000135622
-0.000135622
-6.85E-05
-9.13E-05
-9.13E-05
5.07E-05
6.48E-05
0.000219211
0.000206119
-0.000121187
7.89E-05
-4.26E-05
-4.26E-05
-0.000414252
-8.39E-05
-5.27E-05
3.02E-06
2.45E-05
-1.91E-05
-2.18E-05
-0.000145357
0.000278294
-5.81E-05
0.000138979
0.000123201
0.000123201
-9.74E-06
0.000137972
-2.28E-05
3.26E-05
-4.90E-05
-4.90E-05
-8.73E-06
0.000257481
-3.16E-05
0.000107088
0.000107088
6.65E-05
6.65E-05
0.000141329
-0.000206119
-0.000154757
0.000141665
0.000141665
-0.000355505
-0.000355505
3.69E-06
-3.36E-07
-3.69E-06
-1.71E-05
-1.71E-05
-0.000281315
-8.69E-05
-3.02E-06
-4.93E-05
-4.93E-05
-2.05E-05
-2.05E-05
0.000246738
9.63E-05
-4.20E-05
-5.57E-05
-5.57E-05
-0.000102052
0.000143008
1.04E-05
1.04E-05
-2.48E-05
-2.45E-05
2.25E-05
2.25E-05
-0.000106416
6.14E-05
6.14E-05
6.78E-05
-8.63E-05
-7.69E-05
7.39E-05
7.39E-05
-4.63E-05
-2.08E-05
-2.08E-05
-3.05E-05
5.04E-06
-0.00040586
1.54E-05
-4.13E-05
2.35E-05
-5.91E-05
-7.42E-05
-7.42E-05
4.13E-05
-4.13E-05
-7.39E-06
0.000123873
-0.000194705
0.000207797
2.32E-05
2.01E-05
-2.85E-05
-0.000346441
-0.000346441
6.78E-05
6.78E-05
-1.98E-05
-4.20E-05
8.26E-05
-0.000125216
-0.000125216
-0.000105745
-0.000170871
0.000112459
2.92E-05
2.92E-05
-0.000114473
-0.000114473
-6.58E-05
-0.000256474
0.000126558
-0.000274601
-0.000274601
-4.73E-05
-3.29E-05
-2.65E-05
-3.36E-05
-2.58E-05
-0.000333349
-1.98E-05
-1.98E-05
9.90E-05
-5.47E-05
-5.47E-05
-0.000150729
-0.000150729
-6.38E-05
-4.33E-05
-1.21E-05
0.000221897
0.000221897
-3.52E-05
-5.61E-05
-5.61E-05
0.000216526
0.000216526
-7.59E-05
4.03E-06
3.36E-07
3.36E-07
-2.18E-05
0.000292393
0.000292393
-2.38E-05
-2.38E-05
1.85E-05
1.85E-05
0.000178256
0.000135958
-3.69E-05
5.07E-05
5.07E-05
8.16E-05
8.16E-05
0.000171542
-7.82E-05
-9.53E-05
-4.77E-05
-4.77E-05
-5.27E-05
0.000160128
-4.13E-05
-2.99E-05
-2.99E-05
-0.000123201
-0.000123201
-3.99E-05
-4.40E-05
-8.43E-05
-4.90E-05
-0.000153414
-0.000153414
-0.000130587
-0.000130587
-6.21E-05
4.36E-06
-1.07E-05
-1.07E-05
-0.000134279
2.89E-05
2.89E-05
-8.22E-05
-8.22E-05
-3.39E-05
-3.39E-05
-3.39E-05
-2.92E-05
-1.24E-05
-1.24E-05
-0.000119844
-7.39E-06
-7.39E-06
-7.39E-06
-0.000105074
-7.02E-05
5.07E-05
-2.65E-05
-2.65E-05
7.08E-05
-2.92E-05
-5.81E-05
-5.81E-05
-8.49E-05
-3.59E-05
-7.15E-05
-7.15E-05
-0.000196384
-0.000196384
-4.13E-05
-0.000270909
-0.000270909
-1.24E-05
-1.24E-05
-1.68E-05
-2.58E-05
-3.56E-05
1.78E-05
1.78E-05
1.58E-05
2.52E-05
2.52E-05
-3.49E-05
-3.49E-05
3.36E-07
3.36E-07
-3.36E-07
-3.36E-07
1.68E-06
2.01E-06
-3.02E-06
3.36E-06
3.36E-06
4.63E-05
-6.71E-06
-3.36E-06
-3.36E-06
2.69E-06
-3.36E-06
1.04E-05
1.04E-05
-4.70E-06
-4.36E-06
-2.01E-06
-6.38E-06
-6.38E-06
6.71E-06
6.71E-06
-3.02E-06
3.36E-06
-1.68E-06
-3.36E-06
-3.36E-06
1.01E-06
1.01E-06
1.44E-05
-1.14E-05
2.01E-06
3.36E-07
3.36E-07
-2.35E-06
-2.35E-06
-6.71E-07
-3.69E-06
-1.01E-06
-6.71E-07
-4.36E-06
-4.36E-06
2.35E-06
-4.70E-06
-4.70E-06
-3.36E-07
-3.36E-07
7.72E-06
7.72E-06
0
-3.02E-06
-6.71E-07
3.69E-06
3.69E-06
-6.71E-07
-6.71E-07
-7.39E-06
3.36E-07
3.36E-07
1.01E-06
1.01E-06
0
-1.34E-06
-1.01E-06
1.68E-06
1.68E-06
-2.35E-06
-2.01E-06
-6.38E-06
3.36E-07
2.35E-06
3.36E-07
-1.01E-06
2.35E-06
-2.35E-06
-2.35E-06
-3.36E-07
-3.69E-06
1.01E-06
3.36E-07
3.36E-07
1.68E-06
1.68E-06
3.36E-07
-1.34E-06
6.71E-07
-1.01E-06
-1.01E-06
3.36E-07
2.69E-06
-3.69E-06
3.02E-06
3.02E-06
-3.69E-06
-3.36E-07
-3.36E-07
3.69E-06
3.02E-06
-4.36E-06
-4.36E-06
-2.35E-06
-1.68E-06
-1.68E-06
3.69E-06
1.44E-05
-4.36E-06
-2.35E-06
-2.35E-06
-6.71E-07
1.01E-06
-3.36E-07
3.36E-07
5.71E-06
-2.01E-06
-2.01E-06
4.40E-05
1.34E-06
5.71E-06
6.81E-05
3.12E-05
-9.40E-06
-3.69E-06
4.70E-06
2.35E-06
-4.36E-06
-4.36E-06
1.51E-05
1.51E-05
-8.39E-06
-3.36E-07
-3.36E-07
-3.36E-07
8.39E-06
-5.04E-06
-5.04E-06
-7.39E-06
1.78E-05
1.78E-05
3.73E-05
2.08E-05
-4.03E-06
-4.03E-06
-2.01E-06
7.05E-06
-5.71E-06
-5.71E-06
-7.05E-06
2.35E-06
2.35E-06
-3.02E-06
-3.02E-06
-2.35E-06
-2.35E-06
1.01E-06
7.86E-05
1.34E-06
-4.36E-06
-4.36E-06
1.64E-05
2.01E-06
-6.75E-05
-6.75E-05
-1.11E-05
-4.70E-05
-4.70E-05
1.04E-05
-3.79E-05
-9.50E-05
-2.01E-05
-2.01E-05
1.51E-05
0.000113802
0.000113802
-1.04E-05
-2.72E-05
7.72E-06
7.72E-06
0.000101717
4.70E-06
4.70E-06
-0.000113466
-0.000113466
-5.71E-05
-5.71E-05
0.000198398
8.39E-06
-0.000110445
2.05E-05
2.05E-05
0.000164157
0.000103731
3.86E-05
3.86E-05
2.22E-05
-0.000123873
-0.000123873
-2.45E-05
-9.74E-06
-6.04E-05
-6.04E-05
-3.16E-05
-9.57E-05
-9.57E-05
-7.69E-05
-7.69E-05
-5.37E-06
-1.68E-06
-1.68E-06
3.99E-05
0.000272252
0.000272252
-4.87E-05
-7.55E-05
-3.02E-06
-2.08E-05
-2.08E-05
4.87E-05
-1.01E-06
6.14E-05
0.000235996
-4.16E-05
-0.000125216
-0.000125216
1.58E-05
0.000243717
-0.000197055
-6.38E-05
9.30E-05
0.000101045
-0.00032462
-0.00032462
-0.00027628
-6.48E-05
0
-3.79E-05
-3.46E-05
0.000183627
0.000183627
0.000253788
9.06E-06
-0.000177585
-0.000188663
-0.000188663
-3.83E-05
-3.83E-05
-0.000117159
0.000402503
0.000402503
-0.000103395
-0.000103395
7.62E-05
0.000245396
-0.00022324
-5.81E-05
-6.92E-05
0.000364233
-0.000135287
-0.000135287
-6.75E-05
-1.04E-05
3.93E-05
3.93E-05
-5.24E-05
-5.24E-05
3.69E-05
1.98E-05
-3.26E-05
-0.000112459
2.18E-05
-7.82E-05
4.70E-06
-2.32E-05
-2.32E-05
-9.57E-05
3.73E-05
1.44E-05
-5.71E-05
-5.71E-05
0.000257481
-0.000107759
-0.000107759
-4.13E-05
1.11E-05
4.06E-05
-7.18E-05
-7.18E-05
-4.10E-05
-8.76E-05
6.28E-05
-0.000107759
-0.000107759
-0.000101045
-0.000101045
-1.01E-06
0.000117159
-5.00E-05
3.69E-05
-3.02E-06
-2.79E-05
-2.79E-05
6.04E-06
0.000166171
0.000274266
-1.68E-06
-0.000116487
-9.20E-05
-8.63E-05
-8.63E-05
4.70E-05
-3.39E-05
-6.61E-05
0.000176913
0.000176913
5.54E-05
5.54E-05
-7.15E-05
-6.24E-05
-0.000226261
-4.03E-05
-4.03E-05
-8.16E-05
-8.16E-05
0.000438422
7.49E-05
-3.29E-05
0.000158785
0.000158785
4.13E-05
-9.74E-06
-0.000168185
-0.000168185
-4.80E-05
1.85E-05
-0.000145693
-0.000145693
-8.36E-05
4.60E-05
4.60E-05
-0.000134279
-0.000134279
-7.45E-05
-7.45E-05
-0.00012018
0.000183627
-0.000168856
-9.77E-05
-9.77E-05
-4.70E-06
0.000270909
-6.24E-05
-9.70E-05
-9.70E-05
9.23E-05
9.23E-05
-2.48E-05
0.000129915
-9.06E-06
-9.06E-06
5.20E-05
-0.000237003
-2.52E-05
-2.52E-05
7.96E-05
0.000284001
-2.85E-05
-2.85E-05
-8.39E-06
5.34E-05
1.68E-06
-0.00024976
-0.00024976
-0.000241032
-0.000241032
-9.87E-05
-9.87E-05
-7.22E-05
-7.22E-05
-3.12E-05
-4.33E-05
6.28E-05
0.000231968
0.000205112
0.00012723
-0.000212833
1.17E-05
1.17E-05
3.42E-05
-0.000114809
6.08E-05
7.05E-06
-1.88E-05
3.73E-05
3.73E-05
0.000222568
-5.14E-05
-5.14E-05
-4.43E-05
-4.43E-05
1.01E-05
1.01E-05
-0.000118837
1.68E-06
0.000313878
-0.000195712
-0.000195712
-2.58E-05
-0.000107088
-5.71E-06
-5.71E-06
0.000395789
-3.49E-05
-3.49E-05
3.02E-06
5.20E-05
-8.49E-05
-8.49E-05
-2.92E-05
0.000277623
0.000109773
0.000109773
0.000138979
7.72E-05
7.72E-05
0.000413245
0.000413245
-1.38E-05
3.05E-05
-5.14E-05
-8.56E-05
-4.90E-05
-4.90E-05
-9.06E-06
-1.44E-05
7.05E-06
-8.29E-05
0.000125887
0.000203769
-7.28E-05
-7.28E-05
5.67E-05
-2.08E-05
-0.000182284
-0.000133272
-0.000133272
-0.000365911
-0.000365911
-5.98E-05
-1.85E-05
-8.16E-05
-1.95E-05
-1.95E-05
-0.000347448
-0.000132937
1.88E-05
-5.04E-05
6.31E-05
-0.000168856
-0.000168856
7.72E-06
-2.25E-05
-2.18E-05
6.55E-05
6.55E-05
-0.00012488
7.59E-05
7.59E-05
-2.99E-05
8.39E-06
-4.73E-05
-4.73E-05
8.69E-05
0.00036759
-2.18E-05
4.03E-06
4.03E-06
-3.69E-05
6.28E-05
-1.41E-05
-1.41E-05
-3.36E-07
-1.04E-05
-1.04E-05
2.38E-05
-1.95E-05
-0.000101045
-0.000101045
6.34E-05
-6.81E-05
4.03E-06
4.03E-06
2.35E-06
2.35E-06
6.71E-06
4.70E-06
4.70E-06
2.72E-05
2.72E-05
1.04E-05
2.45E-05
4.63E-05
2.35E-06
2.35E-06
4.36E-06
4.36E-06
-1.31E-05
-2.58E-05
-8.39E-06
3.02E-05
3.02E-05
1.11E-05
1.85E-05
2.35E-06
-7.05E-06
-1.11E-05
-7.05E-06
-1.68E-06
1.17E-05
-4.36E-06
-2.01E-06
-2.01E-06
1.38E-05
1.38E-05
3.69E-06
3.69E-06
9.06E-06
-6.71E-07
-3.36E-06
-1.68E-06
-1.68E-06
6.71E-07
6.71E-07
6.38E-06
-1.68E-06
1.68E-06
-4.36E-06
-4.36E-06
-3.36E-07
-6.71E-07
-4.36E-06
-4.36E-06
6.71E-07
-6.71E-07
-3.36E-07
-3.36E-07
-3.36E-07
4.36E-06
-2.69E-06
-2.69E-06
6.71E-07
6.71E-07
-3.36E-06
-3.36E-06
-6.71E-07
-3.36E-07
-3.36E-07
-1.34E-06
1.01E-06
-1.38E-05
-1.38E-05
2.35E-06
-3.36E-07
-3.36E-07
-6.71E-07
-6.71E-07
-6.71E-07
-6.71E-07
6.71E-07
-1.68E-06
-2.35E-06
-1.34E-06
-1.34E-06
-1.68E-05
-1.68E-05
-1.95E-05
-1.95E-05
6.71E-07
6.71E-07
-1.04E-05
-1.04E-05
1.34E-06
3.69E-06
3.69E-06
-2.35E-06
1.01E-06
1.68E-06
3.69E-06
1.78E-05
-1.54E-05
-4.70E-06
-4.70E-06
7.72E-06
1.01E-06
1.01E-06
3.76E-05
3.76E-05
-1.01E-05
-1.01E-05
2.11E-05
-1.81E-05
-1.01E-05
0
-2.45E-05
-4.33E-05
-5.04E-06
5.71E-06
-2.69E-06
2.35E-06
-2.01E-06
-3.69E-06
-3.69E-06
-3.26E-05
-2.11E-05
-7.72E-06
2.48E-05
2.48E-05
7.39E-06
7.39E-06
1.04E-05
1.04E-05
-0.000116823
0.000114473
9.80E-05
3.79E-05
3.79E-05
-3.16E-05
-8.73E-06
4.73E-05
0.000140658
5.04E-05
-5.14E-05
-7.72E-06
-0.000147036
-0.000147036
-0.000102388
3.09E-05
2.52E-05
2.52E-05
-0.000308843
-0.000308843
-6.61E-05
0.000148043
1.58E-05
-2.89E-05
-2.89E-05
0.000303807
0.000303807
-0.000385046
9.03E-05
9.03E-05
0.000466621
0.000466621
0.000185306
-1.81E-05
-0.000116152
-0.000116152
-0.000110781
-1.68E-06
-9.33E-05
-9.33E-05
3.56E-05
-2.01E-06
-0.000233982
-0.000233982
2.95E-05
3.02E-06
7.45E-05
2.32E-05
-2.99E-05
-6.65E-05
0.000127901
0.000127901
2.11E-05
-5.47E-05
-6.14E-05
-0.000107759
-0.000107759
-2.48E-05
-2.48E-05
-6.48E-05
0.000137972
-0.000660655
-3.29E-05
-3.29E-05
3.05E-05
-9.63E-05
0.000286687
-0.000219547
-6.68E-05
-4.73E-05
0.000399146
0.000399146
0.0001561
0.0001561
-1.51E-05
4.83E-05
-0.000276951
-2.99E-05
-2.99E-05
0.000341741
-0.000178927
6.95E-05
-0.000143679
-0.000125216
-7.82E-05
-7.82E-05
-7.96E-05
-1.85E-05
0.000103059
1.95E-05
1.95E-05
0.000652262
-8.26E-05
-2.58E-05
-2.72E-05
0.000422644
4.33E-05
4.40E-05
4.40E-05
1.51E-05
1.38E-05
4.80E-05
2.75E-05
-0.000135287
3.42E-05
3.42E-05
7.22E-05
4.26E-05
-0.000178592
2.38E-05
2.38E-05
-3.19E-05
-3.19E-05
-3.42E-05
-0.00012253
-3.09E-05
-0.000236667
-0.000236667
-5.71E-05
-3.69E-06
0.000107088
-0.000158114
-0.000138308
-7.55E-05
-7.55E-05
0.00011548
-1.71E-05
-1.71E-05
3.19E-05
-7.96E-05
-1.81E-05
3.93E-05
3.93E-05
2.75E-05
-0.000404852
7.72E-06
-5.94E-05
3.86E-05
-0.000215183
3.36E-07
-2.72E-05
-2.72E-05
-8.69E-05
-9.06E-05
-7.05E-06
3.73E-05
8.39E-06
-1.11E-05
-6.01E-05
-5.74E-05
-8.56E-05
-4.13E-05
-4.13E-05
0.000237339
0.000112459
2.82E-05
2.82E-05
1.31E-05
1.31E-05
0.000327977
0.000327977
-8.29E-05
0.000152071
0.000152071
0.000225254
0.000174563
5.71E-06
-3.89E-05
-6.41E-05
-8.29E-05
-0.000160128
-0.000160128
0.000107088
0.000165835
0.000165835
5.27E-05
-0.000158785
3.02E-06
3.02E-06
-8.39E-06
0.000206119
0.000447486
0.000447486
-1.34E-05
3.83E-05
3.83E-05
-0.000197391
-0.000197391
3.36E-05
3.36E-05
6.04E-06
-0.000159793
-6.01E-05
-6.14E-05
-6.14E-05
-1.38E-05
-1.38E-05
6.38E-06
0.000294072
1.51E-05
-4.06E-05
-4.06E-05
0.000175235
0.000285008
4.13E-05
4.13E-05
0.000235996
1.68E-06
8.29E-05
8.29E-05
-7.62E-05
-7.62E-05
-7.62E-05
0.000405188
0.000405188
6.75E-05
6.75E-05
-0.000102388
-5.14E-05
-5.44E-05
4.73E-05
4.73E-05
-0.000197055
-0.000173556
-1.71E-05
0.000109438
0.000109438
-2.62E-05
-2.62E-05
-1.48E-05
-0.000165164
0.000112459
-1.98E-05
0.000201755
-7.28E-05
-0.000111116
-4.70E-06
0.000466957
3.32E-05
1.91E-05
-2.22E-05
0.000318914
-0.000350134
-0.000350134
-5.94E-05
-5.77E-05
8.83E-05
-7.39E-06
-7.39E-06
3.36E-07
9.63E-05
2.99E-05
0.000114473
0.000114473
9.00E-05
9.00E-05
2.11E-05
-3.09E-05
-1.91E-05
-3.36E-07
-1.28E-05
-0.000111116
-0.000111116
-6.01E-05
-5.67E-05
-2.22E-05
-4.60E-05
-0.000138308
-2.85E-05
-4.06E-05
-1.71E-05
2.18E-05
-4.97E-05
0.000253452
0.000227268
0.000227268
0.000411231
-0.000366919
0.000347448
-3.36E-07
-2.18E-05
-0.000111116
-0.000111116
6.75E-05
-5.00E-05
-5.00E-05
0.000152071
-0.000166171
-8.09E-05
-5.67E-05
-6.48E-05
-8.36E-05
0.00015375
1.04E-05
-1.98E-05
0.000116487
-0.000292058
-0.000292058
7.72E-06
0.000287022
-6.51E-05
-1.98E-05
-1.98E-05
1.78E-05
-3.02E-06
2.11E-05
-1.44E-05
-1.44E-05
7.45E-05
7.45E-05
7.05E-06
-2.11E-05
-4.33E-05
-1.11E-05
-1.11E-05
-5.94E-05
-5.94E-05
-2.69E-06
-2.69E-06
0.000187655
-0.000121523
-0.000121523
-4.50E-05
-6.04E-06
-9.57E-05
-1.31E-05
6.71E-06
-9.06E-06
2.35E-06
2.35E-06
-2.11E-05
-4.40E-05
-4.40E-05
6.41E-05
7.22E-05
-2.28E-05
-2.28E-05
6.38E-06
4.70E-06
4.70E-06
-8.39E-06
-8.39E-06
-1.68E-06
-1.68E-06
-1.04E-05
-6.04E-06
1.14E-05
-1.64E-05
-1.64E-05
1.95E-05
-3.02E-06
-2.18E-05
-2.18E-05
-2.01E-05
-1.11E-05
3.02E-06
3.02E-06
-1.68E-06
1.68E-06
-1.68E-06
-1.68E-06
2.35E-06
2.35E-06
-3.36E-07
-3.36E-07
2.01E-06
2.01E-06
-1.11E-05
-3.36E-07
2.35E-06
6.71E-07
6.71E-07
-3.36E-07
-6.71E-07
-1.01E-06
6.71E-07
1.01E-06
-2.01E-06
-2.01E-06
-8.39E-06
-8.39E-06
0
1.68E-06
1.68E-06
0
0
-3.36E-06
3.36E-07
-5.37E-06
2.01E-06
2.01E-06
-3.36E-07
-4.36E-06
1.68E-06
1.68E-06
-1.68E-06
-1.01E-06
-1.34E-06
-1.34E-06
-4.70E-06
-3.36E-07
-3.36E-07
1.01E-06
1.01E-06
0
-3.36E-06
-4.03E-06
-5.37E-06
-5.37E-06
8.39E-06
3.36E-07
3.36E-07
4.36E-06
4.36E-06
-3.36E-07
-3.02E-06
-3.02E-06
-3.02E-06
-2.01E-06
-3.36E-07
-3.36E-07
-3.36E-07
-7.72E-06
9.74E-06
-1.68E-06
-1.68E-06
-3.36E-07
-3.36E-07
3.02E-06
3.36E-07
3.36E-07
1.01E-06
1.58E-05
1.58E-05
-7.05E-06
-4.36E-06
1.68E-06
-3.36E-07
-1.68E-06
1.68E-06
1.68E-06
-1.01E-06
3.69E-06
0
0
2.35E-06
0
6.71E-07
6.71E-07
-3.36E-07
1.01E-06
1.68E-06
5.71E-06
5.71E-06
-3.36E-06
-3.36E-06
3.36E-07
1.68E-06
1.68E-06
1.34E-06
1.34E-06
-3.36E-07
2.35E-06
-2.01E-06
-6.71E-07
1.68E-06
-3.36E-07
-3.36E-07
-4.36E-06
6.71E-07
3.36E-07
3.36E-07
-1.01E-06
-1.44E-05
-3.36E-06
-3.36E-06
6.71E-07
1.01E-06
-1.01E-06
1.01E-06
1.34E-06
3.36E-07
3.36E-07
1.01E-06
6.71E-07
-9.74E-06
-6.71E-07
-6.71E-07
3.36E-07
1.01E-06
-6.71E-07
-1.01E-06
3.36E-07
0
0
-3.36E-07
-6.71E-07
-6.71E-07
-4.36E-06
1.34E-06
-1.01E-06
2.01E-06
-6.04E-06
1.34E-06
0
-2.35E-06
-3.36E-07
-3.36E-07
3.36E-07
6.71E-07
1.01E-06
1.01E-06
7.05E-06
7.05E-06
-3.36E-07
-1.01E-06
-5.71E-06
0
0
1.68E-06
-6.71E-07
3.36E-07
3.36E-07
-6.71E-07
-3.36E-07
1.01E-06
1.01E-06
-3.36E-07
3.69E-06
6.71E-07
-3.36E-06
7.39E-06
-1.68E-06
-1.68E-06
2.01E-06
-2.35E-06
1.68E-06
1.68E-06
-3.69E-06
-6.71E-07
2.01E-06
2.01E-06
-6.71E-07
3.02E-06
1.01E-06
1.01E-06
2.35E-06
2.35E-06
2.35E-06
-1.01E-06
-1.01E-05
-6.71E-07
-6.71E-07
-1.34E-06
3.36E-07
-6.71E-07
-6.71E-07
1.01E-06
5.04E-06
5.04E-06
-3.36E-07
5.71E-06
5.71E-06
1.68E-06
-6.71E-07
3.36E-07
-3.36E-06
-3.36E-06
2.01E-06
3.36E-07
-1.34E-06
-1.34E-06
0
2.35E-06
-1.34E-06
-1.34E-06
-1.68E-06
-1.68E-06
-1.68E-06
-6.38E-06
-6.38E-06
-1.01E-06
-1.01E-06
-5.37E-06
1.34E-06
-6.71E-07
0
0
7.39E-06
2.01E-06
-1.68E-06
-1.68E-06
7.72E-06
-9.74E-06
-9.74E-06
-1.85E-05
-2.01E-06
-1.68E-06
1.68E-06
1.68E-06
1.01E-06
3.69E-06
2.35E-06
1.21E-05
4.36E-06
-3.69E-06
2.01E-06
2.01E-06
-3.36E-07
-3.02E-06
-3.02E-06
6.01E-05
-1.28E-05
-5.71E-06
-5.71E-06
6.04E-06
0
-6.38E-06
-1.14E-05
-6.04E-06
5.04E-06
3.69E-06
-3.02E-06
3.36E-07
-1.78E-05
-1.78E-05
-5.04E-06
-9.74E-06
0.000102388
-2.85E-05
4.03E-06
0.000159793
-4.33E-05
-4.33E-05
2.52E-05
3.99E-05
5.07E-05
-8.39E-06
-8.39E-06
0.000135287
0.000135287
2.72E-05
3.19E-05
0
-6.48E-05
-6.48E-05
-1.51E-05
-1.51E-05
-3.02E-06
0.000105074
-3.39E-05
-9.23E-05
-9.23E-05
-0.000103395
-2.35E-05
1.01E-06
1.01E-06
-4.70E-06
-1.44E-05
-3.89E-05
-5.44E-05
-5.44E-05
-3.05E-05
0.000166171
-6.81E-05
-6.81E-05
-5.07E-05
0.000115816
-1.01E-06
-0.000165835
1.68E-05
-6.41E-05
-6.41E-05
1.14E-05
-0.000148379
-0.000148379
-0.000261173
-9.94E-05
5.71E-06
-2.72E-05
-2.72E-05
3.99E-05
-1.91E-05
-5.64E-05
-5.64E-05
-2.95E-05
-2.95E-05
-8.46E-05
-4.40E-05
-0.000153414
0.000137972
0.000137972
0.00030045
5.14E-05
3.73E-05
3.73E-05
-0.000257481
-1.41E-05
2.65E-05
2.65E-05
4.46E-05
0.000136629
0.000136629
-2.38E-05
-2.38E-05
1.85E-05
1.85E-05
-3.29E-05
3.05E-05
-3.39E-05
0.000115816
0.000115816
-4.33E-05
0.000289708
6.38E-06
0.000171542
0.000136629
-0.000111116
-0.000111116
-9.50E-05
-5.98E-05
-5.98E-05
-4.36E-06
-4.36E-06
0.00013193
0.00013193
0.000267552
-9.23E-05
-3.96E-05
2.48E-05
2.48E-05
3.69E-06
3.96E-05
8.63E-05
8.63E-05
4.26E-05
-0.000142672
-5.54E-05
-5.54E-05
0.000170871
0.000355505
-5.00E-05
-4.13E-05
-4.13E-05
-7.15E-05
-7.15E-05
1.58E-05
1.58E-05
-7.69E-05
-9.06E-06
-8.39E-06
-0.000198398
6.14E-05
6.14E-05
0.000151064
0.00012958
-3.12E-05
-3.12E-05
5.74E-05
-2.58E-05
-6.21E-05
-0.000160128
-2.35E-05
-2.35E-05
0.000294408
0.000294408
3.93E-05
3.93E-05
-1.17E-05
-1.17E-05
0.000144015
0.000144015
-2.18E-05
-7.22E-05
-1.07E-05
-4.33E-05
-4.33E-05
-3.02E-06
-7.62E-05
-7.62E-05
-6.21E-05
-6.21E-05
-1.11E-05
-1.11E-05
4.70E-06
-4.03E-05
-1.98E-05
-0.000162142
-0.000162142
2.38E-05
-1.11E-05
0.000127901
-0.00011783
-0.000143343
-8.46E-05
-8.46E-05
-2.11E-05
-3.89E-05
4.36E-05
4.36E-05
-4.06E-05
-5.34E-05
-7.82E-05
-7.82E-05
0.000108431
-8.46E-05
-8.46E-05
-1.04E-05
-1.04E-05
-5.71E-06
-5.71E-06
0.000197055
6.38E-06
3.36E-06
-2.52E-05
-2.52E-05
6.34E-05
6.34E-05
-6.61E-05
-5.30E-05
-0.000143343
-5.40E-05
-5.40E-05
-0.000115816
0.000195041
-6.38E-06
-6.38E-06
-0.000130922
1.88E-05
5.64E-05
5.64E-05
0.000111788
1.51E-05
1.51E-05
-4.60E-05
-4.60E-05
5.44E-05
5.44E-05
0.000122866
4.26E-05
4.26E-05
-1.01E-06
-1.01E-06
3.99E-05
3.99E-05
-2.05E-05
1.44E-05
4.63E-05
-5.81E-05
-5.81E-05
0.000242039
-8.73E-06
-5.71E-06
-5.71E-06
3.99E-05
1.71E-05
-6.34E-05
-3.73E-05
1.85E-05
-7.82E-05
-7.82E-05
5.67E-05
5.67E-05
1.24E-05
1.24E-05
-1.24E-05
-4.33E-05
-4.33E-05
3.02E-05
3.02E-05
0.000180606
0.000180606
-6.71E-06
8.39E-06
2.95E-05
2.35E-06
2.35E-06
-9.97E-05
-8.39E-06
-2.99E-05
-2.99E-05
3.09E-05
0.000138644
-2.65E-05
-2.65E-05
-9.43E-05
-0.00014435
-0.00014435
-0.000113802
-0.000113802
-2.65E-05
-2.65E-05
1.11E-05
-2.08E-05
1.58E-05
1.58E-05
-0.000110781
-0.000104067
-0.000104067
-9.06E-06
-9.06E-06
1.51E-05
1.51E-05
-1.38E-05
-2.05E-05
-4.40E-05
-3.26E-05
-3.26E-05
-5.98E-05
5.84E-05
-5.71E-06
-2.32E-05
0.000203769
-8.90E-05
-8.90E-05
3.73E-05
-1.75E-05
-7.15E-05
-0.000110781
4.20E-05
-3.26E-05
-3.26E-05
-3.26E-05
-9.06E-06
8.83E-05
-2.72E-05
6.14E-05
6.14E-05
-2.11E-05
-2.11E-05
1.54E-05
-2.65E-05
-7.55E-05
0.000103059
0.000103059
6.38E-06
1.58E-05
0.000106416
0.000106416
-1.04E-05
-4.93E-05
-4.93E-05
7.96E-05
-0.000103059
5.10E-05
3.66E-05
3.66E-05
-6.41E-05
3.69E-06
-2.45E-05
1.71E-05
1.71E-05
3.12E-05
3.12E-05
-6.38E-06
-8.90E-05
-4.80E-05
-5.24E-05
5.14E-05
3.36E-06
3.36E-06
1.58E-05
-7.25E-05
1.01E-05
-3.69E-06
5.84E-05
5.84E-05
-2.25E-05
-2.25E-05
-2.92E-05
-2.92E-05
3.59E-05
3.19E-05
-6.31E-05
5.20E-05
5.20E-05
-4.53E-05
-4.53E-05
-2.42E-05
-2.35E-06
-2.35E-06
0.0001608
-2.69E-06
6.81E-05
6.81E-05
-2.05E-05
-3.29E-05
-3.29E-05
2.18E-05
2.18E-05
0.000148379
0.000148379
-1.17E-05
-1.98E-05
0.00011783
-1.24E-05
-1.24E-05
-7.05E-06
2.85E-05
8.02E-05
-3.19E-05
-4.87E-05
-1.28E-05
-8.83E-05
-8.83E-05
2.25E-05
-9.06E-06
-9.06E-06
-5.57E-05
-5.57E-05
-1.38E-05
-1.38E-05
1.51E-05
1.01E-06
0.000125887
0.000125887
5.61E-05
6.04E-06
-0.00012723
-0.00012723
1.68E-06
5.81E-05
5.81E-05
3.36E-07
3.86E-05
1.21E-05
-3.32E-05
2.05E-05
1.04E-05
4.36E-06
5.34E-05
-1.75E-05
7.49E-05
-0.000139986
-3.29E-05
-3.29E-05
-3.56E-05
-3.56E-05
-7.45E-05
-5.07E-05
3.42E-05
-6.71E-06
-6.71E-06
-6.71E-06
-6.71E-06
-2.05E-05
1.81E-05
1.81E-05
-3.46E-05
-3.46E-05
-2.01E-05
4.36E-06
-5.04E-06
-2.35E-06
-2.35E-06
-1.01E-06
1.34E-06
-1.01E-06
-3.36E-07
-1.91E-05
-9.06E-06
-8.39E-06
-1.68E-06
3.36E-06
3.36E-06
3.69E-06
-1.68E-06
-3.02E-06
-2.38E-05
-2.38E-05
-7.72E-06
-3.39E-05
-9.06E-06
1.31E-05
1.24E-05
-1.68E-06
-1.68E-06
4.36E-06
-5.04E-06
1.68E-06
-7.05E-06
-1.68E-06
6.71E-07
3.69E-06
3.69E-06
1.68E-06
5.04E-06
-1.01E-06
-1.01E-06
6.71E-07
1.24E-05
3.36E-07
3.36E-07
6.38E-06
-7.39E-06
-1.01E-06
-1.01E-06
1.01E-06
-1.34E-06
-1.34E-06
1.64E-05
1.64E-05
-2.01E-06
-2.01E-06
1.01E-06
-1.68E-06
9.06E-06
3.69E-06
3.69E-06
6.71E-07
-1.68E-06
-3.02E-06
-3.02E-06
-4.36E-06
-1.68E-06
2.35E-06
2.35E-06
-3.36E-07
-2.01E-06
-2.01E-06
3.36E-07
1.01E-06
6.71E-07
6.71E-07
1.68E-06
6.71E-07
6.71E-07
-2.01E-06
-2.01E-06
1.34E-06
1.34E-06
-3.36E-07
-1.68E-06
-6.71E-07
-6.71E-07
-1.68E-06
-3.36E-07
-4.03E-06
-2.01E-06
3.02E-06
1.68E-06
2.01E-06
3.69E-06
-4.70E-06
-4.70E-06
2.01E-06
-3.36E-06
-3.36E-06
-6.38E-06
2.01E-06
-2.01E-06
-7.72E-06
-7.72E-06
4.36E-06
4.36E-06
1.01E-06
-2.35E-06
1.34E-06
1.34E-06
-9.06E-06
5.57E-05
2.35E-06
2.35E-06
2.35E-06
1.54E-05
1.54E-05
1.68E-06
3.36E-06
-4.36E-06
-4.36E-06
3.36E-07
3.36E-07
-7.05E-06
-1.78E-05
-4.03E-06
2.01E-06
-3.02E-06
-3.02E-06
-5.71E-06
6.38E-06
-2.35E-06
3.02E-05
3.02E-05
2.35E-06
2.35E-06
-1.31E-05
4.53E-05
-1.24E-05
-1.24E-05
-9.00E-05
1.98E-05
1.98E-05
-1.01E-06
-1.01E-06
-1.34E-06
3.02E-05
5.20E-05
3.36E-07
-0.000111116
0
0
4.90E-05
-4.33E-05
-3.79E-05
-6.24E-05
9.97E-05
-1.31E-05
-1.31E-05
2.72E-05
-5.94E-05
-2.05E-05
0.000164828
7.22E-05
-1.85E-05
-2.32E-05
-2.32E-05
7.86E-05
7.08E-05
0.000109438
2.35E-06
2.35E-06
-0.000103395
-0.000208469
-8.19E-05
0.000112459
0.000112459
-0.00012253
-0.00012253
2.45E-05
0.000103395
0.000163485
0.000163485
0.000139315
4.23E-05
0.000188998
0.000188998
-9.70E-05
-3.79E-05
3.69E-06
3.69E-06
-5.57E-05
-4.63E-05
0.000219547
9.77E-05
-1.58E-05
0.000124544
0.000124544
-0.000130922
-5.57E-05
-6.78E-05
8.36E-05
8.36E-05
6.68E-05
1.28E-05
-0.000111788
-0.000242039
-2.79E-05
-6.58E-05
-6.58E-05
-9.70E-05
1.91E-05
-3.93E-05
-3.93E-05
-0.000135287
-8.80E-05
-3.05E-05
-3.05E-05
0.000315221
0.000182284
0.000182284
-5.84E-05
-5.84E-05
-0.000124544
-0.000124544
6.95E-05
-0.000281315
7.62E-05
-8.39E-06
-8.39E-06
-0.000207126
-0.000207126
-5.77E-05
-2.89E-05
-0.000105409
-0.000136629
-0.000136629
1.01E-05
9.74E-06
5.04E-06
5.04E-06
-0.000138644
-5.30E-05
2.99E-05
2.99E-05
5.24E-05
7.75E-05
7.75E-05
0.000198398
0.000198398
6.48E-05
6.48E-05
-1.34E-06
7.05E-06
7.05E-06
-5.67E-05
-5.67E-05
0.000143343
0.000143343
-7.32E-05
-0.000116487
0
8.90E-05
8.90E-05
-0.000298436
-7.72E-06
8.02E-05
8.02E-05
-4.36E-06
-1.98E-05
1.38E-05
-3.49E-05
-3.49E-05
-2.35E-06
-2.35E-06
-8.63E-05
-0.000181949
1.91E-05
-0.000133944
-0.000133944
7.05E-06
0.000195712
-2.11E-05
-8.43E-05
-0.000157443
-2.35E-05
6.55E-05
6.55E-05
3.69E-06
-6.85E-05
5.34E-05
0.000250095
-9.80E-05
9.40E-05
9.40E-05
-0.000139986
-0.000114138
-9.06E-06
-0.000115816
-0.000115816
-0.000127901
-0.000127901
-9.57E-05
-0.000150729
-0.000133272
-0.000186313
-1.51E-05
-7.05E-06
-9.47E-05
-9.47E-05
-8.76E-05
-2.99E-05
-0.000186648
-0.000107759
-0.000107759
-1.64E-05
-1.64E-05
2.11E-05
-9.63E-05
9.43E-05
-1.44E-05
0.00012018
0.00012018
-9.50E-05
-9.50E-05
-5.10E-05
-2.01E-06
-5.87E-05
0.000226932
0.000226932
0.000287022
1.44E-05
1.44E-05
-8.66E-05
-7.92E-05
-2.72E-05
-2.72E-05
5.34E-05
-2.45E-05
-3.16E-05
-3.16E-05
3.73E-05
-6.01E-05
-6.01E-05
0.000272923
0.000272923
-0.000247746
-0.000247746
7.15E-05
-3.09E-05
-6.24E-05
8.90E-05
8.90E-05
-0.000135958
0.000198398
4.43E-05
4.43E-05
-1.71E-05
-2.01E-06
0.000125216
0.000125216
-0.00022324
-5.40E-05
-5.40E-05
0.000227939
-8.96E-05
-4.33E-05
-4.33E-05
-5.40E-05
1.58E-05
1.58E-05
3.59E-05
3.59E-05
-3.79E-05
-3.79E-05
-2.32E-05
-0.000128237
-1.71E-05
4.80E-05
4.80E-05
0.000265202
-0.000231296
-1.11E-05
-1.11E-05
6.28E-05
-8.80E-05
-8.80E-05
5.51E-05
-1.21E-05
-2.35E-05
-2.35E-05
-4.93E-05
-3.59E-05
-2.89E-05
-2.89E-05
0.000274601
-2.48E-05
-1.38E-05
-1.38E-05
0.000123537
2.52E-05
-2.32E-05
-2.32E-05
-9.84E-05
-1.64E-05
-3.26E-05
-3.26E-05
-2.72E-05
0.0001561
0.0001561
-2.35E-05
-2.35E-05
-6.04E-06
-6.04E-06
-4.16E-05
-1.07E-05
-1.17E-05
6.51E-05
6.51E-05
-7.42E-05
-7.42E-05
-2.35E-06
-6.08E-05
-6.41E-05
0.000129915
0.000129915
-0.000125216
-9.50E-05
-1.11E-05
-3.52E-05
-7.69E-05
5.74E-05
5.54E-05
5.54E-05
-8.66E-05
-6.41E-05
-6.41E-05
3.59E-05
3.59E-05
-1.85E-05
-1.85E-05
-4.60E-05
1.01E-06
7.72E-06
-0.000129244
-0.000129244
0.000207462
-4.80E-05
-4.80E-05
-0.000229954
-9.37E-05
1.54E-05
1.54E-05
2.18E-05
-8.49E-05
-3.79E-05
0.00023801
3.29E-05
-7.99E-05
-7.99E-05
-7.55E-05
8.43E-05
6.95E-05
-2.92E-05
-3.56E-05
-9.30E-05
-1.11E-05
2.38E-05
2.38E-05
8.22E-05
-5.14E-05
-5.14E-05
-4.20E-05
-2.05E-05
5.74E-05
-1.38E-05
5.47E-05
9.47E-05
-0.00018967
-0.00018967
6.18E-05
-3.46E-05
7.15E-05
-7.96E-05
-7.96E-05
-7.22E-05
-7.22E-05
-0.000164492
4.57E-05
4.57E-05
-2.58E-05
-2.58E-05
0.000222568
0.000222568
4.36E-06
-4.33E-05
0.000150057
-4.87E-05
-4.87E-05
-3.32E-05
-5.67E-05
-5.67E-05
2.38E-05
2.38E-05
-9.77E-05
-9.77E-05
-3.79E-05
0.000100374
4.20E-05
0.000225925
-9.74E-06
-9.74E-06
-5.10E-05
-0.000140322
-0.000140322
8.66E-05
-3.39E-05
-2.22E-05
-2.22E-05
1.34E-05
-7.32E-05
-0.000134615
-0.000134615
-3.59E-05
3.69E-06
3.69E-06
-0.000136294
-0.000136294
-3.19E-05
5.17E-05
-3.39E-05
-7.28E-05
9.74E-06
9.74E-06
0.000263523
-9.53E-05
-2.62E-05
-2.62E-05
3.86E-05
0.000207126
-0.000361547
-0.000361547
-9.37E-05
0.000174228
0.000174228
9.40E-06
9.40E-06
-5.71E-05
-5.71E-05
1.98E-05
-7.05E-06
-7.05E-06
-8.22E-05
-8.22E-05
-1.85E-05
-1.85E-05
-5.94E-05
-0.000168521
-3.12E-05
4.70E-06
4.70E-06
-4.36E-06
1.98E-05
7.02E-05
7.02E-05
-6.92E-05
-0.000108095
-9.33E-05
-9.33E-05
1.68E-06
5.04E-05
5.04E-05
-1.44E-05
-1.44E-05
-4.60E-05
-4.60E-05
0.000104738
1.04E-05
1.04E-05
-7.05E-06
-7.05E-06
-1.11E-05
-1.11E-05
0.000148714
-6.24E-05
0.000139986
0.000181949
0.000181949
-8.39E-06
-9.74E-05
-9.74E-05
-0.000104067
-0.000104067
-7.89E-05
-7.89E-05
0.000107088
-8.02E-05
9.74E-06
9.74E-06
-7.75E-05
-4.67E-05
-7.05E-06
-7.05E-06
-6.88E-05
8.56E-05
-5.17E-05
-9.74E-06
-9.74E-06
1.17E-05
3.05E-05
-9.10E-05
-5.44E-05
1.85E-05
-6.58E-05
-6.58E-05
-7.22E-05
-6.38E-05
-6.38E-05
-1.24E-05
-1.24E-05
-0.000107759
-0.000107759
1.48E-05
5.54E-05
-1.11E-05
3.05E-05
3.05E-05
-7.22E-05
-1.51E-05
-0.000259159
-0.000259159
5.61E-05
-1.51E-05
-1.51E-05
1.68E-05
2.35E-06
2.35E-06
0.00017557
0.00017557
0.000222232
0.000222232
6.01E-05
-0.000116152
-5.94E-05
1.11E-05
1.11E-05
-8.39E-06
-3.46E-05
-3.46E-05
-8.73E-06
2.32E-05
2.11E-05
2.11E-05
6.14E-05
2.32E-05
2.32E-05
-9.97E-05
-9.97E-05
6.65E-05
6.65E-05
7.15E-05
-1.51E-05
0.000138644
4.53E-05
4.53E-05
0.000127901
-2.69E-05
-3.52E-05
-3.52E-05
3.05E-05
0.000107088
-1.01E-06
-1.01E-06
1.78E-05
5.87E-05
2.79E-05
2.79E-05
-4.26E-05
-3.12E-05
2.58E-05
2.58E-05
1.85E-05
0.000140322
2.65E-05
2.65E-05
-2.05E-05
-0.000117495
0.000227604
-8.39E-06
-8.39E-06
2.72E-05
2.72E-05
-0.000221225
0.000108095
3.26E-05
8.29E-05
8.29E-05
0.000223911
0.000223911
-3.02E-06
-1.51E-05
6.38E-06
-8.39E-06
-8.39E-06
-2.38E-05
-8.09E-05
-3.79E-05
-3.79E-05
-2.38E-05
-0.000111788
-0.000111788
-9.03E-05
-6.04E-06
8.96E-05
8.96E-05
0.000117159
8.49E-05
-1.01E-06
-1.01E-06
-9.43E-05
-4.50E-05
-4.50E-05
3.19E-05
3.19E-05
9.90E-05
9.90E-05
2.92E-05
2.92E-05
-1.24E-05
-1.24E-05
0.000159457
-3.12E-05
5.07E-05
-5.61E-05
-5.61E-05
-6.71E-07
-6.71E-07
2.85E-05
-4.60E-05
-0.000108431
0.000198398
0.000198398
-8.39E-06
0.000330663
-3.79E-05
-2.99E-05
-9.97E-05
-0.000108095
9.50E-05
9.50E-05
5.47E-05
3.49E-05
2.35E-05
-3.29E-05
-3.29E-05
3.89E-05
3.89E-05
-2.18E-05
-3.39E-05
-3.39E-05
0.000143343
0.000143343
0.00018732
0.00018732
-4.33E-05
-7.72E-05
-5.34E-05
9.06E-06
9.06E-06
-2.58E-05
-0.000124208
0.00032462
0.00032462
-0.000163485
-4.67E-05
-6.28E-05
-6.28E-05
5.61E-05
-5.67E-05
-5.67E-05
-1.51E-05
-1.51E-05
-2.18E-05
-2.69E-05
-2.18E-05
8.69E-05
-3.93E-05
3.46E-05
3.46E-05
-2.99E-05
-2.92E-05
-2.92E-05
-4.70E-06
3.59E-05
0.000222568
0.000222568
-3.86E-05
-4.63E-05
-3.29E-05
1.31E-05
-9.90E-05
-8.26E-05
-2.65E-05
-2.65E-05
-4.36E-05
2.79E-05
2.79E-05
3.02E-05
-1.68E-06
-6.78E-05
-4.50E-05
-4.50E-05
-8.16E-05
0.000102388
-2.95E-05
8.26E-05
8.26E-05
1.78E-05
-0.000152743
-0.000152743
0.000183963
-1.91E-05
-1.91E-05
-9.74E-06
-2.28E-05
-0.000124544
-0.000124544
-3.69E-05
0.000265202
-2.35E-06
-2.35E-06
-2.11E-05
-3.73E-05
-3.73E-05
-5.34E-05
-5.34E-05
-1.85E-05
-1.85E-05
-0.000326635
0.000159793
-3.56E-05
7.28E-05
7.28E-05
-0.000166842
-8.63E-05
-8.53E-05
5.67E-05
5.67E-05
0.000289708
-4.16E-05
-3.02E-05
0.000147036
0.000111788
0.000111788
3.79E-05
4.13E-05
9.06E-06
2.79E-05
-0.000380346
-3.52E-05
-3.52E-05
-1.78E-05
3.19E-05
0.000178927
0.000178927
-5.40E-05
-3.69E-06
0.000111788
-4.83E-05
2.35E-06
-1.04E-05
-1.04E-05
-9.06E-05
-9.06E-05
0.000196384
3.19E-05
3.19E-05
1.91E-05
2.35E-06
1.04E-05
4.40E-05
-4.40E-05
-5.07E-05
-5.07E-05
3.05E-05
3.05E-05
-4.33E-05
-4.33E-05
6.11E-05
0.000296086
-0.000115145
-7.05E-06
-7.05E-06
-3.93E-05
-8.93E-05
4.26E-05
4.26E-05
-0.000111788
2.25E-05
2.25E-05
0.000138644
-1.98E-05
0.00020914
7.08E-05
3.02E-06
-0.000145022
-7.96E-05
-7.96E-05
2.58E-05
-2.48E-05
3.66E-05
3.66E-05
-3.05E-05
-6.78E-05
7.45E-05
7.45E-05
4.26E-05
-5.71E-06
5.98E-05
5.98E-05
-0.000151736
-9.33E-05
-9.33E-05
-0.000107759
5.84E-05
-0.000104402
-0.000104402
1.11E-05
-5.81E-05
-5.81E-05
-3.52E-05
-2.55E-05
-2.55E-05
7.22E-05
-0.000221897
4.60E-05
-8.53E-05
-8.36E-05
-8.36E-05
-0.00011783
0.000113466
0.000113466
-2.35E-05
-6.24E-05
-2.22E-05
3.42E-05
3.42E-05
-3.93E-05
-3.93E-05
-2.45E-05
-4.87E-05
-4.87E-05
-6.04E-05
0.00012018
-5.04E-06
-5.04E-06
-3.29E-05
-3.29E-05
0.000105074
-0.000107088
-0.000107088
-6.65E-05
-6.65E-05
2.72E-05
-4.33E-05
5.71E-06
5.71E-06
0.000132265
0.000132265
-1.34E-06
2.65E-05
5.71E-06
-8.73E-06
-8.73E-06
-8.63E-05
-1.78E-05
1.38E-05
1.38E-05
0.000102388
-8.12E-05
-2.18E-05
-2.18E-05
-2.32E-05
-7.05E-05
-7.05E-05
-5.27E-05
8.16E-05
-0.000101045
-0.000101045
8.69E-05
-8.06E-06
0.000286015
0.000286015
-8.19E-05
-3.26E-05
-4.06E-05
-0.000108095
-0.000108095
-5.14E-05
-5.14E-05
-2.42E-05
-4.70E-06
-0.000118837
-0.000134279
-0.000134279
-3.19E-05
-1.17E-05
4.26E-05
4.26E-05
-4.53E-05
4.67E-05
4.67E-05
-5.71E-06
0.000140658
2.48E-05
2.48E-05
8.86E-05
-0.000106416
-2.35E-05
-2.35E-05
-2.45E-05
-7.02E-05
-8.86E-05
6.71E-05
1.78E-05
-4.53E-05
-4.53E-05
0.000167178
9.77E-05
9.77E-05
-7.96E-05
-7.96E-05
-3.59E-05
-3.59E-05
-7.35E-05
0.000115145
1.31E-05
0.000231968
0.000231968
1.75E-05
-2.75E-05
1.44E-05
1.11E-05
2.25E-05
-4.90E-05
3.26E-05
3.26E-05
0.00024271
-4.20E-05
0.000138644
0.000138644
-6.68E-05
-3.69E-06
-6.75E-05
-6.75E-05
-3.42E-05
0.000247746
-1.71E-05
-1.71E-05
9.16E-05
-0.000290379
-0.000290379
-0.00011783
0.000132601
8.16E-05
-1.21E-05
-3.12E-05
7.05E-06
7.05E-06
3.12E-05
3.12E-05
0.000228946
0.000228946
-8.63E-05
-1.54E-05
-4.57E-05
-6.38E-05
-6.38E-05
1.71E-05
-0.000215854
-0.000159457
-2.58E-05
-2.58E-05
-7.45E-05
-7.45E-05
-5.84E-05
6.41E-05
-2.52E-05
-5.20E-05
-5.20E-05
-7.89E-05
0.000129915
3.32E-05
3.73E-05
-4.70E-06
-1.78E-05
-1.78E-05
-3.29E-05
-4.46E-05
3.02E-06
3.02E-06
2.05E-05
-0.00017792
-1.51E-05
-1.51E-05
-0.000107088
-0.000107088
-5.77E-05
5.81E-05
5.81E-05
-4.67E-05
-4.67E-05
-6.68E-05
7.05E-06
7.05E-06
-6.48E-05
-6.48E-05
6.81E-05
6.81E-05
-2.35E-05
-2.18E-05
-7.02E-05
8.39E-06
8.39E-06
0.000278965
0.000218204
-9.74E-05
-9.74E-05
7.22E-05
7.99E-05
-3.79E-05
9.10E-05
9.33E-05
9.33E-05
9.33E-05
4.63E-05
-8.06E-06
-8.06E-06
0.000127565
0.000127565
-9.27E-05
-9.27E-05
4.70E-06
-0.000380346
-0.000380346
-2.52E-05
-2.52E-05
0.000313878
0.000163485
-5.30E-05
-0.000103395
-0.000103395
-3.66E-05
-3.66E-05
0.000213169
-0.000101045
0.000321263
-1.85E-05
-0.000253788
-0.000188998
4.70E-06
-3.02E-06
6.88E-05
7.49E-05
7.72E-06
-3.26E-05
-3.26E-05
-5.54E-05
3.69E-06
-5.57E-05
-2.05E-05
-4.93E-05
-0.000116487
-0.000116487
-0.000156771
-4.20E-05
-2.05E-05
-0.000116487
0.000104067
-5.44E-05
-5.44E-05
0.000154757
-2.18E-05
-1.38E-05
0
0
-1.71E-05
-5.00E-05
0.000156771
-0.000250095
0.000255802
0.000135958
0.000135958
-9.80E-05
8.83E-05
3.36E-06
-2.48E-05
-5.87E-05
2.11E-05
-3.46E-05
7.39E-06
7.39E-06
4.40E-05
-7.28E-05
-0.000155428
-0.000155428
-7.55E-05
-7.55E-05
-1.14E-05
-6.04E-06
0.000102388
0.000102388
0.000184299
0.000184299
-2.22E-05
-2.72E-05
-9.06E-06
7.08E-05
-0.000134615
-0.000134615
-1.85E-05
-1.51E-05
-0.000149386
-1.38E-05
-1.38E-05
2.11E-05
0.000423316
0.000423316
-5.94E-05
-3.99E-05
1.17E-05
1.17E-05
-4.33E-05
-3.05E-05
-3.05E-05
5.61E-05
5.61E-05
-6.61E-05
-6.61E-05
6.55E-05
3.69E-06
0
-2.35E-06
-2.35E-06
-0.000192355
-3.26E-05
-3.16E-05
-3.16E-05
-7.39E-06
1.24E-05
-9.43E-05
-8.96E-05
-8.96E-05
-2.72E-05
2.72E-05
2.72E-05
0.000129915
-4.43E-05
-4.43E-05
6.88E-05
-1.98E-05
0.000103731
0.000103731
-3.86E-05
-3.86E-05
-6.34E-05
-2.52E-05
-2.52E-05
1.04E-05
1.04E-05
-1.11E-05
-1.51E-05
-2.32E-05
-3.59E-05
-8.29E-05
6.21E-05
-6.95E-05
-6.95E-05
0.000106416
-0.000202762
-1.04E-05
8.53E-05
8.53E-05
-1.68E-06
0.000144686
3.96E-05
5.61E-05
-0.000106752
-0.000106752
-2.05E-05
0.000112459
-0.000100038
-5.61E-05
-5.61E-05
1.48E-05
0.00011783
-2.25E-05
-2.25E-05
-1.24E-05
8.90E-05
-3.36E-07
-3.36E-07
-2.65E-05
-3.12E-05
5.94E-05
5.94E-05
-0.00011313
-0.00011313
-3.19E-05
-0.000119844
-0.000119844
-7.75E-05
-9.03E-05
9.74E-06
-6.38E-06
-6.38E-06
-2.45E-05
-2.45E-05
-4.06E-05
-4.06E-05
-7.28E-05
-1.04E-05
3.86E-05
4.80E-05
4.80E-05
-9.74E-06
-9.74E-06
-1.78E-05
2.38E-05
7.02E-05
-1.34E-06
-1.34E-06
0.000205448
-3.12E-05
-1.31E-05
-1.31E-05
-0.00018497
-0.00018497
-2.38E-05
-2.38E-05
1.04E-05
1.04E-05
8.83E-05
0.000162814
0.000162814
5.34E-05
-1.01E-06
3.05E-05
3.05E-05
-0.000116823
-0.000116823
-3.12E-05
0.000137972
-6.28E-05
2.65E-05
2.65E-05
9.74E-06
-9.74E-06
-2.18E-05
-2.18E-05
-3.56E-05
-7.28E-05
-2.58E-05
-2.58E-05
1.11E-05
-1.98E-05
-1.78E-05
0.000144686
0.000144686
-6.04E-06
-6.04E-06
5.94E-05
4.63E-05
4.63E-05
-1.68E-05
-4.93E-05
-3.79E-05
-3.79E-05
-5.40E-05
-6.38E-06
-6.38E-06
-4.40E-05
-4.40E-05
-2.05E-05
-2.42E-05
-2.42E-05
6.04E-06
6.04E-06
0
0
3.36E-07
2.35E-06
2.35E-06
2.35E-06
2.35E-06
1.68E-06
1.68E-06
-1.01E-06
-6.71E-07
-1.85E-05
-6.04E-06
-6.04E-06
-3.36E-06
-3.36E-07
-1.01E-06
-1.01E-06
7.72E-06
7.72E-06
-3.69E-06
-3.69E-06
-6.71E-07
-5.71E-06
-3.36E-07
-1.68E-06
-1.68E-06
3.02E-06
3.02E-06
7.39E-06
2.35E-06
2.85E-05
4.36E-06
4.36E-06
-2.01E-06
-2.01E-06
2.69E-06
2.35E-06
-2.35E-06
4.03E-06
4.03E-06
2.35E-06
7.05E-06
-1.01E-06
1.01E-06
1.01E-06
-1.68E-06
-1.68E-06
-3.36E-07
-1.68E-06
-5.04E-06
-5.71E-06
-5.71E-06
-3.02E-06
2.01E-06
-3.36E-07
-3.36E-07
-3.36E-07
6.71E-07
6.71E-07
0
5.04E-06
5.04E-06
-1.68E-06
2.35E-06
3.36E-07
6.71E-07
6.71E-07
1.01E-06
-6.71E-07
-2.35E-06
-1.01E-06
-4.36E-06
-4.36E-06
-4.36E-06
-1.68E-06
1.01E-06
7.72E-06
-1.68E-06
-1.68E-06
3.36E-07
-3.36E-07
-3.36E-07
-1.01E-06
0
-1.34E-06
1.01E-06
1.01E-06
-3.36E-07
-3.36E-07
-3.36E-07
9.06E-06
-3.69E-06
3.36E-07
3.36E-07
-6.71E-07
4.03E-06
-3.36E-07
-3.36E-07
-3.36E-07
-3.36E-06
-3.36E-06
-1.34E-06
1.01E-06
-1.01E-06
-3.36E-07
-3.36E-07
1.01E-06
1.01E-06
-3.36E-07
-2.69E-06
3.36E-07
-6.71E-07
-6.71E-07
1.68E-06
6.71E-07
2.35E-06
3.36E-07
-3.36E-07
-6.71E-07
-6.71E-07
-3.36E-07
-6.71E-07
-1.34E-06
-1.34E-06
-6.71E-07
-6.71E-07
0
0
2.01E-06
-4.70E-06
-4.70E-06
-1.01E-06
-1.01E-06
-1.68E-06
-1.68E-06
-3.36E-07
-5.37E-06
-3.36E-07
-1.34E-06
-1.34E-06
3.36E-07
-3.36E-07
-5.04E-06
-5.04E-06
1.01E-06
-1.01E-06
2.01E-06
2.01E-06
1.01E-06
-6.71E-07
6.38E-06
-1.68E-06
-1.68E-06
-1.68E-06
-3.36E-07
2.35E-06
2.35E-06
0
0
1.34E-06
1.34E-06
-2.01E-06
-2.01E-06
-1.68E-06
2.35E-06
2.35E-06
-3.02E-06
-3.02E-06
3.36E-07
3.36E-07
-3.36E-07
-3.36E-07
-3.36E-07
-1.01E-06
-1.01E-06
1.01E-06
0
-1.01E-06
-1.01E-06
3.36E-06
-4.03E-06
-3.36E-07
-3.36E-07
3.36E-07
-3.36E-07
0
3.36E-07
-1.01E-06
-4.03E-06
-4.03E-06
-3.36E-07
1.34E-06
1.34E-06
0
0
-1.68E-06
-1.68E-06
4.36E-06
3.36E-07
3.36E-07
-3.36E-07
-3.36E-07
1.68E-06
-6.71E-07
-1.34E-06
1.01E-06
-6.71E-07
-3.36E-07
-3.36E-07
-2.35E-06
0
-6.38E-06
0
-6.71E-07
2.69E-06
-1.68E-06
0
-1.68E-06
-3.36E-07
-1.01E-06
-1.01E-06
-6.71E-07
1.01E-06
-3.36E-07
3.36E-07
3.36E-07
-3.36E-07
-3.36E-07
-1.34E-06
0
3.69E-06
-3.36E-07
-3.36E-07
3.36E-07
3.36E-07
-1.01E-06
-6.71E-07
-6.71E-07
-3.36E-07
-3.36E-07
-3.36E-07
3.36E-07
-1.34E-06
-3.36E-07
0
1.34E-06
-3.36E-07
-1.01E-06
-1.68E-06
3.36E-07
-1.68E-06
-3.36E-07
-1.01E-06
-1.01E-06
-3.36E-07
-6.71E-07
3.36E-07
-3.36E-07
-3.36E-07
-6.71E-07
1.01E-06
0
1.01E-06
1.01E-06
-6.71E-07
-6.71E-07
-3.36E-07
-6.71E-07
1.68E-06
6.71E-07
0
0
-6.71E-07
0
0
-3.36E-07
-6.71E-07
-6.71E-07
3.36E-07
3.36E-07
3.36E-07
1.01E-06
1.01E-06
-6.71E-07
-6.71E-07
0
-3.36E-07
-1.34E-06
-6.71E-07
-6.71E-07
-3.36E-07
6.71E-07
-6.71E-07
6.71E-07
-3.36E-07
-6.71E-07
6.71E-07
6.71E-07
1.01E-06
-3.36E-07
-3.36E-07
-3.36E-07
3.36E-07
-1.68E-06
-3.69E-06
-3.69E-06
-1.68E-06
-1.01E-06
-9.06E-06
-9.06E-06
2.35E-06
-7.05E-06
-7.05E-06
-1.68E-06
-1.68E-06
1.01E-06
1.01E-06
0
2.01E-06
2.01E-06
1.34E-06
1.34E-06
1.34E-06
1.34E-06
2.35E-06
6.71E-07
-6.71E-07
1.01E-06
3.36E-07
5.04E-06
-1.01E-06
-1.34E-06
5.04E-06
5.04E-06
1.68E-06
1.68E-06
-6.71E-07
-6.71E-07
-3.69E-06
2.65E-05
2.65E-05
-1.85E-05
-6.71E-06
-1.01E-05
-5.04E-06
-7.05E-06
-4.36E-06
3.52E-05
3.52E-05
-3.36E-07
5.04E-06
5.04E-06
-2.01E-05
-3.12E-05
-1.01E-06
-8.39E-06
-8.39E-06
-1.64E-05
-4.70E-06
-4.70E-06
-4.13E-05
-4.13E-05
-5.04E-05
-5.04E-05
-9.84E-05
8.39E-05
8.39E-05
5.87E-05
6.34E-05
4.03E-06
4.03E-06
7.05E-06
7.22E-05
6.34E-05
-4.36E-06
6.38E-06
0.000113466
0.000113466
-3.52E-05
-3.52E-05
8.96E-05
8.96E-05
2.35E-05
-3.29E-05
0.000205783
1.28E-05
-4.13E-05
3.32E-05
-3.73E-05
-5.37E-06
-5.37E-06
0.000110445
7.62E-05
-5.20E-05
-5.20E-05
0.000155093
-2.75E-05
-2.75E-05
-2.82E-05
7.49E-05
-0.000127901
-0.000127901
-3.36E-06
-5.74E-05
-5.74E-05
-5.74E-05
9.10E-05
6.38E-06
6.38E-06
-7.59E-05
-7.59E-05
7.69E-05
7.69E-05
0.000217197
2.99E-05
1.01E-06
-0.000126223
-0.000126223
8.29E-05
1.24E-05
1.24E-05
0.000327306
0.000327306
5.17E-05
-0.000110445
1.71E-05
1.71E-05
-4.50E-05
-4.50E-05
-0.000272587
-0.000379675
-8.96E-05
-5.40E-05
-5.40E-05
6.21E-05
6.21E-05
-0.000105074
0.000149386
-3.73E-05
-9.80E-05
-9.80E-05
-5.51E-05
0.00072343
0.00072343
-8.49E-05
-1.85E-05
-6.48E-05
-5.74E-05
-5.74E-05
0.00026923
-2.45E-05
-2.45E-05
-8.63E-05
0.000149722
6.71E-07
-0.000214511
-0.000199405
-7.62E-05
-7.62E-05
7.55E-05
7.55E-05
0.000119844
0.00011313
0.00011313
-0.000351141
0.000212161
0.000164157
0.000164157
-9.50E-05
0.000103395
0.000103395
-1.85E-05
-1.85E-05
6.41E-05
8.73E-06
8.73E-06
-9.87E-05
8.96E-05
8.96E-05
-0.000123873
-1.11E-05
3.73E-05
3.73E-05
-6.88E-05
-3.69E-06
-4.90E-05
-4.90E-05
0.000317571
9.74E-06
9.74E-06
0.000355505
0.000355505
2.15E-05
2.15E-05
3.19E-05
-3.93E-05
-7.72E-05
7.42E-05
7.42E-05
-0.000115145
4.93E-05
0.000107088
4.10E-05
4.10E-05
1.85E-05
1.85E-05
-2.22E-05
-2.01E-06
-6.04E-06
9.06E-06
9.06E-06
-5.81E-05
9.57E-05
-8.36E-05
-8.36E-05
5.34E-05
5.34E-05
-4.50E-05
-5.04E-06
0.000240696
7.62E-05
7.18E-05
-2.42E-05
0.000123201
0.000114473
0.000114473
-0.000123873
-1.68E-06
0.000174899
0.000174899
3.69E-06
-0.000106416
-8.39E-06
-8.39E-06
1.81E-05
0.000139315
-8.49E-05
-0.000107088
0.000273594
3.16E-05
-4.10E-05
-4.10E-05
5.04E-06
-9.06E-06
-1.31E-05
-1.31E-05
-0.000152743
-0.000152743
-3.99E-05
-3.99E-05
-1.58E-05
-1.58E-05
-0.000181277
7.39E-06
-0.00012253
0.000150057
0.000150057
9.06E-06
3.69E-06
3.69E-06
-3.12E-05
-3.12E-05
-4.06E-05
-4.06E-05
0.000169528
0.000169528
9.87E-05
2.79E-05
2.79E-05
-0.000299779
-0.000299779
-2.05E-05
-2.35E-06
-1.01E-06
-6.24E-05
-6.24E-05
4.50E-05
-5.44E-05
8.56E-05
-3.66E-05
-0.00024036
-4.06E-05
-4.06E-05
-7.02E-05
5.47E-05
-0.000315221
-0.000315221
-2.72E-05
3.69E-05
-1.41E-05
-2.25E-05
-2.25E-05
-1.68E-06
-0.000297765
-0.000297765
0.000144686
-3.93E-05
-2.65E-05
-2.65E-05
0.000192355
0.000139315
-6.04E-06
-6.04E-06
9.40E-06
0.000250431
0.000250431
-8.53E-05
-8.53E-05
-1.78E-05
-1.78E-05
-0.000251438
4.06E-05
4.06E-05
-1.38E-05
-1.38E-05
-8.09E-05
-8.09E-05
-8.09E-05
-4.93E-05
-4.97E-05
0.000154757
0.000154757
-1.04E-05
0.000212497
0.000430701
0.000430701
-8.16E-05
-3.46E-05
-3.79E-05
-3.79E-05
-6.38E-05
-0.000108766
-0.000108766
-1.68E-05
-1.68E-05
9.94E-05
9.94E-05
-2.75E-05
-4.87E-05
-4.87E-05
3.46E-05
3.46E-05
0.000119173
0.000119173
-0.000104067
0.000121859
-2.35E-06
-6.38E-05
-6.38E-05
0.000133944
0.000162814
-4.46E-05
0.000201419
0.000201419
7.75E-05
7.75E-05
-7.05E-05
-0.000166842
-1.64E-05
4.93E-05
-3.26E-05
-2.55E-05
-4.06E-05
9.33E-05
7.35E-05
1.01E-06
-1.91E-05
-9.33E-05
-9.33E-05
-3.59E-05
-0.000141329
2.99E-05
6.31E-05
3.19E-05
1.24E-05
1.24E-05
7.49E-05
-0.000342077
0.000500527
-1.44E-05
-1.44E-05
1.24E-05
1.24E-05
-0.000146365
0.000117159
8.39E-06
3.86E-05
3.86E-05
0.000265538
-4.26E-05
-1.28E-05
-3.02E-06
-1.68E-06
8.83E-05
7.86E-05
7.86E-05
-1.68E-06
-0.00018732
-0.00018732
-2.45E-05
-2.45E-05
-6.21E-05
-6.21E-05
-8.49E-05
7.89E-05
7.89E-05
-2.99E-05
-2.99E-05
6.24E-05
6.24E-05
-6.71E-07
4.36E-05
-4.60E-05
-5.00E-05
-5.00E-05
4.77E-05
-9.77E-05
3.52E-05
3.52E-05
-5.04E-06
0.000262852
-3.29E-05
-3.29E-05
5.27E-05
0.000209812
0.000232639
-9.74E-06
-3.36E-06
-1.91E-05
-1.91E-05
1.31E-05
-2.48E-05
-2.48E-05
-1.68E-06
-1.68E-06
3.63E-05
3.63E-05
9.53E-05
-3.73E-05
9.30E-05
4.16E-05
4.16E-05
-6.28E-05
-8.39E-06
5.34E-05
5.34E-05
-0.000123873
-4.36E-06
-7.02E-05
-7.02E-05
-1.91E-05
-7.75E-05
-7.75E-05
-2.38E-05
-2.38E-05
-0.000218875
-0.000218875
0.000253452
-0.000107759
-0.000107759
-0.000209476
-0.000107759
-0.00021854
-2.52E-05
1.88E-05
7.32E-05
7.32E-05
7.35E-05
7.35E-05
8.39E-06
1.44E-05
-7.39E-06
-7.39E-06
1.91E-05
1.91E-05
5.37E-06
7.72E-06
7.72E-06
-1.41E-05
-1.41E-05
4.70E-06
-0.000185977
0.000216861
-5.04E-06
-0.000133608
-2.55E-05
0.000163485
2.38E-05
7.49E-05
-1.01E-06
0.000262516
0.000262516
-3.46E-05
5.54E-05
5.54E-05
0.000107088
0.000107088
-8.63E-05
-8.63E-05
-6.11E-05
-3.83E-05
-3.83E-05
-5.24E-05
-5.24E-05
-0.000208469
-0.000208469
-1.38E-05
-9.74E-06
3.96E-05
3.36E-06
3.36E-06
-5.14E-05
-4.03E-06
0
0
-1.68E-05
3.36E-07
-1.01E-06
-1.01E-06
1.68E-06
-7.72E-06
-7.72E-06
-7.72E-06
-1.11E-05
7.72E-06
4.03E-06
2.35E-06
-9.40E-06
4.70E-06
-9.40E-06
5.71E-06
1.95E-05
4.20E-05
-1.68E-06
-1.68E-06
-4.03E-06
-4.03E-06
1.28E-05
5.47E-05
-2.35E-06
-5.04E-06
-5.04E-06
-1.01E-06
-4.36E-06
1.68E-06
2.69E-06
-1.68E-06
7.72E-06
3.69E-06
2.35E-06
3.36E-07
1.34E-06
-2.69E-06
-2.69E-06
3.36E-07
3.36E-07
2.35E-06
-3.69E-06
0
0
0
-6.71E-07
3.36E-07
-2.01E-06
-2.01E-06
0
-6.71E-07
0
0
-3.36E-07
-2.35E-06
-2.35E-06
-2.35E-06
-2.35E-06
-2.01E-06
-1.54E-05
-2.35E-06
-1.01E-06
-1.01E-06
1.01E-06
1.01E-06
3.36E-07
3.36E-07
2.01E-06
4.70E-06
-5.04E-06
-5.71E-06
-5.71E-06
6.71E-07
-3.02E-06
-2.35E-06
-2.35E-06
-1.34E-06
-4.36E-06
-3.02E-06
-3.02E-06
0
-1.01E-06
-1.01E-06
-4.03E-06
-4.03E-06
1.01E-06
1.01E-06
3.36E-07
-1.68E-06
1.34E-06
-2.01E-06
-2.01E-06
-3.36E-07
-3.36E-07
-3.36E-07
1.68E-06
-1.01E-06
0
0
6.71E-07
-6.71E-07
-3.02E-06
-3.02E-06
-2.69E-06
-3.36E-07
3.36E-07
3.36E-07
3.36E-06
3.36E-07
3.36E-07
-7.72E-06
-7.72E-06
-1.68E-06
-1.68E-06
0
3.36E-07
-3.36E-06
6.71E-07
6.71E-07
1.34E-06
1.34E-06
-3.69E-06
-6.71E-07
-6.71E-07
-1.01E-06
-1.01E-06
1.34E-06
1.34E-06
1.01E-06
1.01E-06
-3.36E-07
2.35E-06
-3.36E-07
-3.36E-07
1.68E-06


